Data from MgO Tm LN_USBC44471_15-14-04-711.txt Node
Date: Wed Jul 29 15:14:04 MDT 2020
User: Montana Instruments
Spectrometer: USBC4447
Scans to average: 1
Trigger mode: 4
Integration Time (sec): 1.000000E1
Electric dark correction enabled: true
Boxcar width: 0
XAxis mode: Wavelengths
Number of Pixels in Spectrum: 3648
>>>>>Begin Spectral Data<<<<<
344.991	-5294.51
345.205	-5294.51
345.419	-5294.51
345.633	-5274.03
345.847	-5312.94
346.061	-363
346.275	794.1
346.489	-1231.34
346.703	-68.09
346.917	-1915.36
347.131	1230.32
347.345	-649.72
347.559	-784.88
347.773	1324.52
347.986	-90.62
348.2	3010
348.414	-1255.92
348.628	-619
348.842	-1008.11
349.056	-1227.25
349.269	415.23
349.483	1316.33
349.697	1469.93
349.911	1410.54
350.125	-1014.26
350.338	445.95
350.552	998.9
350.766	-582.14
350.979	-1622.5
351.193	-309.76
351.407	5416.37
351.621	-233.98
351.834	-1421.8
352.048	2547.16
352.262	-389.63
352.475	3403.21
352.689	1299.95
352.902	1588.71
353.116	140.8
353.33	-1458.67
353.543	-1065.46
353.757	300.54
353.971	292.35
354.184	407.03
354.398	-383.48
354.611	861.68
354.825	2987.47
355.038	1179.12
355.252	-287.23
355.465	-379.39
355.679	-2374.11
355.892	742.9
356.106	1359.34
356.319	7798.15
356.533	-502.26
356.746	-184.83
356.96	-809.46
357.173	-1460.71
357.386	1228.27
357.6	-788.98
357.813	-995.82
358.027	-2286.05
358.24	-711.16
358.453	2647.51
358.667	-1327.6
358.88	1080.82
359.094	-1106.42
359.307	278.01
359.52	-303.61
359.733	2311.64
359.947	-3475.91
360.16	1377.77
360.373	1723.88
360.587	-1186.29
360.8	-451.07
361.013	-369.15
361.226	-827.89
361.44	2565.59
361.653	1588.71
361.866	-905.71
362.079	-2556.38
362.292	255.48
362.506	3481.03
362.719	478.71
362.932	2979.28
363.145	146.94
363.358	-887.28
363.571	-1282.54
363.785	-250.36
363.998	1244.65
364.211	2010.59
364.424	-1223.15
364.637	1039.86
364.85	-649.72
365.063	2043.36
365.276	144.89
365.489	-1442.28
365.702	-258.56
365.915	419.32
366.128	-309.76
366.341	1938.91
366.554	3374.54
366.767	-834.04
366.98	155.13
367.193	927.22
367.406	-1393.13
367.619	3874.24
367.832	2026.98
368.045	323.07
368.258	525.82
368.471	1242.61
368.684	-2490.84
368.896	-1847.78
369.109	216.57
369.322	-1118.7
369.535	-274.94
369.748	-1540.58
369.961	-702.97
370.173	-4002.24
370.386	-3862.98
370.599	2721.24
370.812	-518.65
371.025	-782.84
371.237	251.39
371.45	273.92
371.663	740.85
371.876	-592.37
372.088	4861.37
372.301	-788.98
372.514	-1585.64
372.726	521.72
372.939	-307.71
373.152	-571.9
373.364	1009.14
373.577	3538.38
373.79	-582.14
374.002	-907.76
374.215	-4176.32
374.428	-3037.65
374.64	1574.38
374.853	-922.1
375.065	-565.75
375.278	3665.35
375.491	73.21
375.703	1506.79
375.916	-2742.74
376.128	-717.3
376.341	-1622.5
376.553	865.78
376.766	-1389.03
376.978	-2413.02
377.191	843.25
377.403	-1921.51
377.616	2903.51
377.828	4150.72
378.04	-1348.08
378.253	-532.98
378.465	411.13
378.678	1031.66
378.89	-1149.42
379.103	-844.28
379.315	380.41
379.527	-2085.34
379.74	-479.74
379.952	-199.16
380.164	-1497.58
380.377	2067.94
380.589	-49.66
380.801	62.98
381.014	1596.9
381.226	1013.23
381.438	-115.2
381.65	-1376.75
381.863	79.36
382.075	-971.25
382.287	-2554.33
382.499	-819.7
382.712	-84.48
382.924	112.13
383.136	-874.99
383.348	-4270.53
383.56	28.16
383.772	-1018.35
383.985	159.23
384.197	1279.47
384.409	-487.93
384.621	501.24
384.833	69.12
385.045	93.69
385.257	-1339.88
385.469	-475.64
385.681	210.43
385.893	50.69
386.105	-1026.54
386.318	-3856.84
386.53	-397.82
386.742	-4311.49
386.954	-2871.76
387.166	2915.8
387.378	263.68
387.589	138.75
387.801	-4221.38
388.013	-1602.02
388.225	-1163.76
388.437	-2843.09
388.649	-1941.99
388.861	2434.52
389.073	1222.13
389.285	-614.9
389.497	742.9
389.709	1498.6
389.92	-1186.29
390.132	-862.71
390.344	-793.08
390.556	-680.44
390.768	386.55
390.98	-893.43
391.191	1818.08
391.403	747
391.615	310.78
391.827	-1108.46
392.038	-893.43
392.25	-328.19
392.462	-2318.81
392.674	-2662.87
392.885	-1530.34
393.097	-3860.93
393.309	-731.64
393.52	1191.41
393.732	-1585.64
393.944	552.44
394.155	474.62
394.367	-1280.49
394.579	568.82
394.79	-1034.74
395.002	-129.53
395.213	-4127.17
395.425	-354.81
395.637	-1047.02
395.848	-2810.33
396.06	450.04
396.271	304.64
396.483	-1206.77
396.694	-283.13
396.906	-541.18
397.117	1465.83
397.329	1519.08
397.54	-760.31
397.752	-1966.56
397.963	-1153.52
398.175	298.49
398.386	1320.43
398.598	-854.51
398.809	-2988.5
399.02	896.5
399.232	849.4
399.443	97.79
399.655	-1004.02
399.866	-1163.76
400.077	-442.87
400.289	1447.4
400.5	-80.38
400.711	933.36
400.923	-1409.51
401.134	-1069.55
401.345	-2044.38
401.556	3417.55
401.768	-1008.11
401.979	-322.04
402.19	925.17
402.401	-489.98
402.613	97.79
402.824	-735.73
403.035	-3977.67
403.246	-2103.78
403.457	331.26
403.669	181.76
403.88	-1726.95
404.091	-3056.08
404.302	-1348.08
404.513	-604.66
404.724	-934.39
404.935	-721.4
405.146	1043.95
405.358	-2064.86
405.569	-1567.21
405.78	-2916.82
405.991	-924.15
406.202	93.69
406.413	-332.28
406.624	-1772
406.835	-375.29
407.046	2985.43
407.257	-127.49
407.468	1322.48
407.679	-367.1
407.89	1842.66
408.101	1910.24
408.312	-487.93
408.522	-2171.36
408.733	302.59
408.944	343.55
409.155	-690.68
409.366	1076.72
409.577	-2226.65
409.788	-311.8
409.999	157.18
410.209	-686.58
410.42	226.81
410.631	-2138.59
410.842	67.07
411.053	5184.94
411.264	1127.92
411.474	-1147.37
411.685	26.11
411.896	-1356.27
412.107	-3195.34
412.317	-1075.7
412.528	1926.63
412.739	-2597.34
412.949	-1268.2
413.16	97.79
413.371	2215.39
413.581	1115.63
413.792	-578.04
414.003	3724.74
414.213	1779.17
414.424	-2290.14
414.635	-553.46
414.845	-1161.71
415.056	1129.97
415.266	-1763.81
415.477	-3805.64
415.687	730.61
415.898	1093.1
416.109	-1819.11
416.319	491
416.53	-4209.09
416.74	69.12
416.951	-1260.01
417.161	30.21
417.372	169.47
417.582	601.59
417.792	1648.1
418.003	2317.79
418.213	-616.95
418.424	335.35
418.634	-1679.85
418.844	1048.05
419.055	1990.11
419.265	-1360.36
419.476	497.14
419.686	-1079.79
419.896	-88.57
420.107	-1196.53
420.317	-727.54
420.527	32.26
420.738	-309.76
420.948	1050.1
421.158	1543.66
421.368	-582.14
421.579	-334.33
421.789	-1257.96
421.999	-4456.89
422.209	-446.97
422.419	-442.87
422.63	-115.2
422.84	-410.11
423.05	-1157.61
423.26	-1065.46
423.47	-20.99
423.681	-2257.37
423.891	884.21
424.101	1676.77
424.311	-735.73
424.521	-289.28
424.731	-780.79
424.941	-590.33
425.151	501.24
425.361	-1774.05
425.571	-3664.33
425.781	4060.61
425.991	1043.95
426.201	1611.24
426.411	347.64
426.621	-1446.38
426.831	-2443.74
427.041	157.18
427.251	-418.3
427.461	1428.97
427.671	1181.17
427.881	-786.93
428.091	1.54
428.301	2426.33
428.511	7.68
428.721	-4399.55
428.93	-348.67
429.14	-1214.96
429.35	306.68
429.56	-1161.71
429.77	-389.63
429.98	-1249.77
430.189	-1092.08
430.399	2797.01
430.609	1435.11
430.819	239.1
431.029	-1413.61
431.238	-930.29
431.448	-713.21
431.658	-3940.8
431.867	-770.55
432.077	169.47
432.287	-1051.12
432.497	-913.91
432.706	60.93
432.916	-395.77
433.125	-4391.36
433.335	-1278.44
433.545	1279.47
433.754	3821
433.964	-1329.64
434.174	-991.73
434.383	2317.79
434.593	-1198.57
434.802	1048.05
435.012	-1270.25
435.221	298.49
435.431	-463.35
435.64	-1038.83
435.85	-1274.35
436.059	288.25
436.269	853.49
436.478	-971.25
436.688	-3314.13
436.897	-961.01
437.107	-2752.98
437.316	27692.12
437.525	239.1
437.735	58.88
437.944	-4.61
438.154	2518.49
438.363	-4.61
438.572	3057.11
438.782	472.57
438.991	-870.9
439.2	-240.12
439.41	-1145.33
439.619	-1118.7
439.828	142.85
440.038	56.83
440.247	2278.88
440.456	-1542.63
440.665	617.97
440.875	882.16
441.084	349.69
441.293	-1792.48
441.502	-1190.38
441.711	-1026.54
441.92	427.51
442.13	-440.83
442.339	-1247.72
442.548	-522.74
442.757	1725.93
442.966	-4268.48
443.175	-1065.46
443.384	1617.38
443.593	1709.54
443.803	-2101.73
444.012	-279.04
444.221	-602.61
444.43	4726.2
444.639	441.85
444.848	2096.61
445.057	-1184.24
445.266	-1642.98
445.475	-2619.86
445.684	-1319.4
445.893	2330.08
446.102	421.37
446.311	-4469.18
446.52	112.13
446.728	2958.8
446.937	-3977.67
447.146	-4540.86
447.355	368.12
447.564	-367.1
447.773	1527.27
447.982	1512.94
448.191	648.69
448.399	-1241.58
448.608	-903.67
448.817	-571.9
449.026	1080.82
449.235	-1933.79
449.443	1146.35
449.652	-612.85
449.861	-1016.3
450.07	294.4
450.278	1770.98
450.487	-4411.84
450.696	34.3
450.904	-1380.84
451.113	-874.99
451.322	812.53
451.53	-711.16
451.739	2897.36
451.948	-1196.53
452.156	-47.62
452.365	4244.93
452.574	939.51
452.782	185.85
452.991	-446.97
453.199	617.97
453.408	288.25
453.616	-1661.41
453.825	1203.69
454.033	1392.11
454.242	3431.88
454.45	3608.01
454.659	347.64
454.867	14894.36
455.076	-1139.18
455.284	-893.43
455.493	-1679.85
455.701	-1188.33
455.91	3118.54
456.118	-932.34
456.326	-2134.5
456.535	2487.77
456.743	1109.49
456.951	-3660.23
457.16	1164.78
457.368	667.13
457.576	-1694.18
457.785	2663.9
457.993	-172.54
458.201	-1208.81
458.41	785.91
458.618	-1032.69
458.826	-20.99
459.034	-4348.35
459.243	-1683.94
459.451	239.1
459.659	69.12
459.867	-575.99
460.075	-819.7
460.284	-109.05
460.492	-2421.21
460.7	-352.76
460.908	-623.09
461.116	-3942.85
461.324	-1178.09
461.532	-3350.99
461.741	-2828.76
461.949	-821.75
462.157	2072.03
462.365	-41.47
462.573	-49.66
462.781	527.86
462.989	-719.35
463.197	-1524.2
463.405	-3416.52
463.613	58.88
463.821	-2781.65
464.029	169.47
464.237	-1171.95
464.445	-733.68
464.653	962.03
464.861	-174.59
465.069	1484.27
465.276	4918.71
465.484	-963.06
465.692	-676.34
465.9	-961.01
466.108	-627.19
466.316	884.21
466.524	-705.01
466.731	-506.36
466.939	1973.73
467.147	30.21
467.355	-137.73
467.563	1471.98
467.77	845.3
467.978	-2984.4
468.186	556.54
468.393	2033.12
468.601	-291.32
468.809	-1894.88
469.017	-772.6
469.224	-2064.86
469.432	1031.66
469.64	-1341.93
469.847	-2157.02
470.055	640.5
470.263	-1255.92
470.47	-1077.74
470.678	1332.72
470.885	-111.1
471.093	2448.86
471.3	820.72
471.508	-1464.81
471.716	-528.89
471.923	366.07
472.131	447.99
472.338	-1270.25
472.546	-709.11
472.753	2917.84
472.961	-1376.75
473.168	-78.33
473.375	-496.12
473.583	1002.99
473.79	-197.12
473.998	310.78
474.205	386.55
474.412	1998.31
474.62	-846.32
474.827	-1366.51
475.035	1523.18
475.242	-856.56
475.449	-1327.6
475.657	3958.21
475.864	3266
476.071	237.05
476.278	-920.05
476.486	-567.8
476.693	290.3
476.9	396.79
477.107	478.71
477.315	-932.34
477.522	99.84
477.729	1592.81
477.936	-586.23
478.143	-1421.8
478.351	1369.58
478.558	-1450.47
478.765	-707.06
478.972	-227.84
479.179	663.03
479.386	763.38
479.593	1138.16
479.8	869.87
480.007	-1716.71
480.215	-158.21
480.422	1074.67
480.629	-2621.91
480.836	1275.37
481.043	3012.05
481.25	-596.47
481.457	-1550.82
481.664	-651.77
481.871	706.04
482.078	-1155.57
482.284	-1456.62
482.491	2104.8
482.698	1619.43
482.905	-1096.18
483.112	-2714.07
483.319	105.98
483.526	212.48
483.733	2426.33
483.94	-3928.52
484.146	-1907.17
484.353	-23.04
484.56	-520.7
484.767	-4528.57
484.974	2225.63
485.18	1578.47
485.387	-522.74
485.594	-1116.65
485.801	1883.62
486.007	392.7
486.214	-827.89
486.421	-1987.04
486.627	-403.96
486.834	957.94
487.041	673.27
487.247	-1182.19
487.454	-1696.23
487.661	384.51
487.867	507.38
488.074	-1810.92
488.281	1154.54
488.487	-246.27
488.694	-856.56
488.9	-463.35
489.107	-1020.4
489.313	-748.02
489.52	-565.75
489.726	-1737.19
489.933	2866.64
490.139	2936.28
490.346	-373.24
490.552	382.46
490.759	-397.82
490.965	237.05
491.172	3274.19
491.378	-467.45
491.584	124.41
491.791	1768.93
491.997	-184.83
492.204	-451.07
492.41	3261.9
492.616	-2382.3
492.823	-1505.77
493.029	-1206.77
493.235	2397.66
493.442	-172.54
493.648	-737.78
493.854	-731.64
494.06	4822.45
494.267	677.37
494.473	-817.65
494.679	-1130.99
494.885	413.18
495.091	3435.98
495.298	982.51
495.504	-3414.48
495.71	-326.14
495.916	-3047.89
496.122	2698.71
496.328	628.21
496.535	726.52
496.741	-401.91
496.947	896.5
497.153	-326.14
497.359	587.26
497.565	370.17
497.771	1650.15
497.977	-98.81
498.183	-647.67
498.389	1076.72
498.595	-1505.77
498.801	556.54
499.007	865.78
499.213	-213.5
499.419	-551.42
499.625	136.7
499.831	3186.13
500.037	-600.57
500.243	-1475.05
500.448	-610.81
500.654	1084.91
500.86	2041.31
501.066	-547.32
501.272	2461.15
501.478	-2705.88
501.684	-594.42
501.889	-1753.57
502.095	-1384.94
502.301	-311.8
502.507	660.98
502.712	-379.39
502.918	-1137.13
503.124	-1008.11
503.33	929.27
503.535	-766.45
503.741	120.32
503.947	-121.34
504.152	-209.4
504.358	-2324.96
504.564	-477.69
504.769	507.38
504.975	4531.64
505.181	-152.06
505.386	-1817.06
505.592	-694.77
505.797	769.52
506.003	-3310.03
506.208	1979.87
506.414	-363
506.619	163.33
506.825	603.64
507.03	-2101.73
507.236	-1102.32
507.441	194.05
507.647	-813.56
507.852	75.26
508.058	1306.09
508.263	1244.65
508.469	-408.06
508.674	-2599.38
508.879	-506.36
509.085	-94.72
509.29	-1559.02
509.495	-1477.1
509.701	-965.11
509.906	785.91
510.111	-469.5
510.317	957.94
510.522	462.33
510.727	2110.94
510.933	-598.52
511.138	429.56
511.343	-580.09
511.548	693.75
511.754	-1542.63
511.959	2248.16
512.164	79.36
512.369	3448.27
512.574	3560.91
512.779	-1427.95
512.985	-446.97
513.19	1025.52
513.395	73.21
513.6	-1081.84
513.805	-258.56
514.01	2031.07
514.215	-195.07
514.42	2940.37
514.625	-467.45
514.83	2760.15
515.035	-176.64
515.24	5.63
515.445	3036.63
515.65	2016.74
515.855	189.95
516.06	-334.33
516.265	546.3
516.47	1404.39
516.675	335.35
516.88	-2597.34
517.085	101.89
517.29	-539.13
517.495	486.9
517.7	1758.69
517.904	-92.67
518.109	800.24
518.314	-479.74
518.519	781.81
518.724	609.78
518.928	585.21
519.133	-494.07
519.338	316.92
519.543	443.9
519.747	1105.39
519.952	2979.28
520.157	6348.19
520.362	1146.35
520.566	2758.1
520.771	-1853.92
520.976	1261.04
521.18	4015.55
521.385	-956.91
521.59	-834.04
521.794	503.29
521.999	2225.63
522.203	-1038.83
522.408	-385.53
522.612	-930.29
522.817	779.76
523.022	2352.6
523.226	-33.28
523.431	-1112.56
523.635	208.38
523.84	2315.74
524.044	-635.38
524.249	1732.07
524.453	3190.22
524.657	361.98
524.862	7087.51
525.066	-952.82
525.271	-109.05
525.475	1160.69
525.679	-104.96
525.884	-1872.36
526.088	1363.44
526.292	2840.02
526.497	382.46
526.701	-838.13
526.905	-221.69
527.11	196.09
527.314	-252.41
527.518	3595.72
527.722	-778.74
527.927	1170.93
528.131	-1987.04
528.335	5647.79
528.539	1957.35
528.744	2823.64
528.948	-1581.54
529.152	-958.96
529.356	2633.18
529.56	830.96
529.764	308.73
529.968	130.56
530.173	7994.76
530.377	6348.19
530.581	-1636.84
530.785	1813.99
530.989	-283.13
531.193	378.36
531.397	-1196.53
531.601	337.4
531.805	1854.95
532.009	1832.42
532.213	38.4
532.417	724.47
532.621	2182.62
532.825	3571.15
533.029	155.13
533.233	855.54
533.436	753.14
533.64	298.49
533.844	1922.53
534.048	-698.87
534.252	773.62
534.456	3651.02
534.66	2440.67
534.863	32.26
535.067	265.72
535.271	2457.05
535.475	-373.24
535.679	2151.9
535.882	3110.35
536.086	2004.45
536.29	2252.25
536.493	718.33
536.697	1566.18
536.901	1080.82
537.104	1994.21
537.308	980.47
537.512	1357.29
537.715	3870.15
537.919	1601
538.123	1740.26
538.326	1334.76
538.53	2657.75
538.733	3220.94
538.937	2186.72
539.141	1805.8
539.344	2751.96
539.548	1965.54
539.751	4672.95
539.955	5451.18
540.158	7089.56
540.362	4644.28
540.565	2737.62
540.768	4294.08
540.972	10755.42
541.175	8994.17
541.379	6505.88
541.582	5911.97
541.785	7916.94
541.989	9377.14
542.192	5051.83
542.396	6237.6
542.599	8246.66
542.802	8662.4
543.005	7378.32
543.209	6133.15
543.412	7886.22
543.615	7988.61
543.819	7886.22
544.022	6256.03
544.225	7284.11
544.428	7429.52
544.631	10177.89
544.835	7028.12
545.038	6268.32
545.241	6569.37
545.444	9684.33
545.647	7957.89
545.85	6884.76
546.054	5633.45
546.257	3777.99
546.46	6514.08
546.663	5750.18
546.866	6708.63
547.069	6710.68
547.272	5258.67
547.475	5911.97
547.678	5162.42
547.881	4011.46
548.084	4490.68
548.287	4953.52
548.49	2477.53
548.693	3958.21
548.896	1693.16
549.099	4459.96
549.302	2477.53
549.505	2194.91
549.707	1981.92
549.91	4023.75
550.113	1705.45
550.316	1639.91
550.519	4337.09
550.722	4259.26
550.924	1936.87
551.127	2921.94
551.33	2063.84
551.533	1658.34
551.736	1254.89
551.938	1177.07
552.141	2846.16
552.344	742.9
552.546	2891.22
552.749	1523.18
552.952	1750.5
553.154	1754.6
553.357	1760.74
553.56	1752.55
553.762	7249.3
553.965	5864.87
554.168	2102.75
554.37	3845.57
554.573	2604.5
554.775	4255.17
554.978	3143.12
555.18	431.61
555.383	1293.8
555.585	5404.08
555.788	2401.76
555.99	1308.14
556.193	2026.98
556.395	3401.16
556.598	884.21
556.8	1562.09
557.003	2006.5
557.205	6045.09
557.407	1535.46
557.61	2090.46
557.812	2311.64
558.015	4341.18
558.217	1732.07
558.419	2387.42
558.622	3833.29
558.824	2561.5
559.026	955.89
559.228	1672.68
559.431	3364.3
559.633	3190.22
559.835	1693.16
560.037	3206.61
560.24	5094.83
560.442	4142.53
560.644	1519.08
560.846	3528.14
561.048	3567.05
561.25	4474.3
561.453	3171.79
561.655	2215.39
561.857	2487.77
562.059	2082.27
562.261	4797.88
562.463	3003.86
562.665	2858.45
562.867	3616.2
563.069	3857.86
563.271	4883.89
563.473	3628.49
563.675	3241.42
563.877	3493.32
564.079	2156
564.281	5395.89
564.483	3958.21
564.685	3005.91
564.887	2432.47
565.089	4672.95
565.291	4625.85
565.493	1838.56
565.694	5203.38
565.896	1871.33
566.098	4011.46
566.3	5088.69
566.502	2702.81
566.704	5877.16
566.905	687.61
567.107	1304.04
567.309	1209.84
567.511	4275.65
567.712	1525.22
567.914	2711
568.116	560.63
568.317	4650.43
568.519	3222.99
568.721	347.64
568.922	286.2
569.124	2639.32
569.326	5193.14
569.527	2534.87
569.729	1746.41
569.93	6823.32
570.132	2024.93
570.334	4189.63
570.535	759.28
570.737	1854.95
570.938	6428.06
571.14	2121.18
571.341	3702.22
571.543	6960.53
571.744	2790.87
571.946	4316.61
572.147	1652.2
572.348	5402.03
572.55	4339.13
572.751	5121.46
572.953	2016.74
573.154	4437.44
573.355	6749.59
573.557	9166.2
573.758	3632.58
573.959	3378.64
574.161	5287.34
574.362	5434.8
574.563	7380.37
574.765	5952.93
574.966	6237.6
575.167	2541.02
575.368	5508.52
575.569	3761.61
575.771	5946.79
575.972	2940.37
576.173	4156.86
576.374	5445.04
576.575	5119.41
576.776	1537.51
576.978	2604.5
577.179	3284.43
577.38	4228.54
577.581	2586.07
577.782	3710.41
577.983	5143.99
578.184	5676.46
578.385	3227.09
578.586	4126.15
578.787	2680.28
578.988	4378.05
579.189	1863.14
579.39	2754.01
579.591	3808.71
579.792	2641.37
579.993	4808.12
580.194	4799.93
580.395	5838.25
580.596	3982.79
580.796	5066.16
580.997	2719.19
581.198	3524.04
581.399	5565.87
581.6	6188.45
581.801	2788.82
582.001	6710.68
582.202	2231.77
582.403	1254.89
582.604	7843.21
582.804	3640.78
583.005	3890.63
583.206	841.2
583.407	5125.55
583.607	3059.15
583.808	2743.77
584.009	4961.72
584.209	4576.7
584.41	1469.93
584.61	3270.09
584.811	3124.69
585.012	2436.57
585.212	1752.55
585.413	3145.17
585.613	3266
585.814	1963.49
586.014	4998.58
586.215	2493.91
586.415	3139.02
586.616	2020.83
586.816	2760.15
587.017	4851.13
587.217	1816.04
587.418	6098.34
587.618	2559.45
587.819	2555.35
588.019	1132.01
588.219	607.73
588.42	2960.85
588.62	935.41
588.82	898.55
589.021	1406.44
589.221	3321.29
589.421	1326.57
589.622	3878.34
589.822	1103.34
590.022	5340.59
590.222	3542.47
590.423	1908.19
590.623	1043.95
590.823	2858.45
591.023	2747.86
591.223	998.9
591.423	5569.96
591.624	2686.42
591.824	2313.69
592.024	1072.62
592.224	2039.26
592.424	5494.19
592.624	2362.84
592.824	2954.71
593.024	2080.22
593.224	4967.86
593.424	4672.95
593.624	2571.74
593.824	2338.27
594.024	2725.33
594.224	1146.35
594.424	2600.41
594.624	581.11
594.824	1762.79
595.024	1191.41
595.224	2389.47
595.424	673.27
595.624	642.55
595.824	1132.01
596.023	3921.35
596.223	3821
596.423	1508.84
596.623	2684.38
596.823	-389.63
597.023	-647.67
597.222	6272.42
597.422	749.04
597.622	-303.61
597.822	1023.47
598.021	2455
598.221	812.53
598.421	-578.04
598.62	1521.13
598.82	622.07
599.02	4906.42
599.219	4343.23
599.419	2381.28
599.618	605.69
599.818	2586.07
600.018	-578.04
600.217	1070.58
600.417	4001.22
600.616	1492.46
600.816	1775.08
601.015	2002.4
601.215	974.32
601.414	671.22
601.614	732.66
601.813	-483.83
602.013	1920.48
602.212	1465.83
602.412	267.77
602.611	2502.11
602.81	1990.11
603.01	2964.95
603.209	1545.7
603.408	-1124.85
603.608	2506.2
603.807	1052.14
604.006	5830.06
604.206	116.22
604.405	1502.7
604.604	1832.42
604.803	1545.7
605.003	208.38
605.202	136.7
605.401	763.38
605.6	2119.14
605.8	189.95
605.999	355.83
606.198	1570.28
606.397	1900
606.596	570.87
606.795	2596.31
606.994	3472.84
607.193	497.14
607.393	3651.02
607.592	3499.47
607.791	1506.79
607.99	3517.9
608.189	3507.66
608.388	4435.39
608.587	3927.49
608.786	2016.74
608.985	427.51
609.184	1717.73
609.382	3134.93
609.581	2594.26
609.78	4507.07
609.979	4238.78
610.178	2696.66
610.377	2141.66
610.576	228.86
610.775	2969.04
610.973	2840.02
611.172	3759.56
611.371	2643.42
611.57	1990.11
611.769	4804.02
611.967	1514.98
612.166	4380.09
612.365	2512.35
612.564	2784.73
612.762	2799.06
612.961	3114.45
613.16	2039.26
613.358	2633.18
613.557	-303.61
613.756	2670.04
613.954	4234.69
614.153	1072.62
614.351	1089.01
614.55	392.7
614.749	3874.24
614.947	1715.69
615.146	835.06
615.344	2469.34
615.543	-23.04
615.741	2188.77
615.94	2887.12
616.138	753.14
616.337	2936.28
616.535	1099.25
616.733	-47.62
616.932	1297.9
617.13	3673.54
617.329	5254.58
617.527	-862.71
617.725	-1522.15
617.924	-1028.59
618.122	255.48
618.32	-631.29
618.519	-1507.82
618.717	2272.73
618.915	2225.63
619.114	1082.86
619.312	-131.58
619.51	355.83
619.708	2106.85
619.906	-739.83
620.105	-430.59
620.303	-287.23
620.501	3737.03
620.699	-1460.71
620.897	857.59
621.095	1945.06
621.293	-1120.75
621.492	2055.65
621.69	-51.71
621.888	968.18
622.086	3153.36
622.284	1127.92
622.482	318.97
622.68	630.26
622.878	204.28
623.076	75.26
623.274	177.66
623.472	423.42
623.67	1535.46
623.868	-2605.53
624.065	941.55
624.263	482.81
624.461	1035.76
624.659	-399.87
624.857	3096.02
625.055	2491.87
625.253	-395.77
625.45	-135.68
625.648	116.22
625.846	169.47
626.044	308.73
626.242	460.28
626.439	2133.47
626.637	796.15
626.835	-57.86
627.032	1998.31
627.23	-1464.81
627.428	3407.31
627.626	1291.76
627.823	517.62
628.021	2866.64
628.218	2014.69
628.416	1435.11
628.614	-1137.13
628.811	-1550.82
629.009	-727.54
629.206	-209.4
629.404	-965.11
629.601	167.42
629.799	-2386.4
629.996	3571.15
630.194	1195.5
630.391	904.69
630.589	-670.2
630.786	2115.04
630.984	380.41
631.181	-2126.3
631.378	-510.46
631.576	2002.4
631.773	-2243.04
631.97	-1364.46
632.168	-2347.48
632.365	192
632.562	345.59
632.76	-952.82
632.957	368.12
633.154	97.79
633.352	638.45
633.549	-580.09
633.746	2194.91
633.943	962.03
634.14	-723.44
634.338	2358.75
634.535	-403.96
634.732	-152.06
634.929	2797.01
635.126	792.05
635.323	93.69
635.52	2282.97
635.717	552.44
635.915	-297.47
636.112	-12.8
636.309	-2736.6
636.506	-483.83
636.703	-2769.37
636.9	-406.01
637.097	5414.32
637.294	454.14
637.491	-969.2
637.688	2344.41
637.884	-1153.52
638.081	-563.7
638.278	-215.55
638.475	-324.09
638.672	-451.07
638.869	-745.97
639.066	5850.53
639.263	1013.23
639.459	818.68
639.656	-2734.55
639.853	-1782.24
640.05	4558.27
640.246	2076.13
640.443	-84.48
640.64	-4100.55
640.837	339.45
641.033	-2896.34
641.23	-133.63
641.427	-207.36
641.623	738.8
641.82	-659.96
642.017	-1174
642.213	-397.82
642.41	-522.74
642.606	1123.82
642.803	1529.32
643	380.41
643.196	-1589.74
643.393	2258.4
643.589	327.16
643.786	-1106.42
643.982	4208.06
644.179	1627.62
644.375	-852.47
644.571	-412.15
644.768	-1675.75
644.964	-246.27
645.161	-256.51
645.357	2657.75
645.553	400.89
645.75	2125.28
645.946	189.95
646.143	-150.01
646.339	411.13
646.535	392.7
646.731	1342.96
646.928	50.69
647.124	-1911.27
647.32	2444.76
647.516	2092.51
647.713	-1395.18
647.909	-98.81
648.105	-504.31
648.301	-3715.53
648.497	441.85
648.693	-616.95
648.89	-420.35
649.086	-160.25
649.282	-1008.11
649.478	-563.7
649.674	214.52
649.87	1918.43
650.066	1252.84
650.262	-1126.89
650.458	1781.22
650.654	-1411.56
650.85	226.81
651.046	-494.07
651.242	-121.34
651.438	114.17
651.634	-1757.67
651.83	-870.9
652.026	507.38
652.222	-295.42
652.417	-315.9
652.613	1107.44
652.809	-1726.95
653.005	-877.04
653.201	2518.49
653.397	-1208.81
653.592	-150.01
653.788	-1096.18
653.984	1551.85
654.18	4627.9
654.375	-977.39
654.571	-131.58
654.767	-166.4
654.962	-1077.74
655.158	-3959.24
655.354	-625.14
655.549	1183.21
655.745	1215.98
655.941	3538.38
656.136	-938.48
656.332	-1325.55
656.527	103.93
656.723	1572.33
656.918	-2003.43
657.114	-717.3
657.309	-154.11
657.505	1060.34
657.7	1478.12
657.896	-1210.86
658.091	-1532.39
658.287	-715.25
658.482	-2410.97
658.678	-1004.02
658.873	372.22
659.068	3519.95
659.264	-475.64
659.459	36516.82
659.654	744.95
659.85	2338.27
660.045	-1626.6
660.24	1926.63
660.436	5352.88
660.631	-170.49
660.826	2035.17
661.021	267.77
661.217	2430.43
661.412	-809.46
661.607	-2271.71
661.802	-522.74
661.997	-438.78
662.192	544.25
662.388	-3170.77
662.583	-657.91
662.778	458.23
662.973	-2474.46
663.168	-2871.76
663.363	-1022.45
663.558	4134.34
663.753	1345
663.948	-2101.73
664.143	-1561.06
664.338	185.85
664.533	1037.81
664.728	-619
664.923	-1108.46
665.118	173.57
665.313	-1042.93
665.508	1250.8
665.703	1254.89
665.897	1205.74
666.092	595.45
666.287	-100.86
666.482	-522.74
666.677	1988.07
666.872	1721.83
667.066	-801.27
667.261	-1114.61
667.456	112.13
667.651	1480.17
667.845	2115.04
668.04	472.57
668.235	-1948.13
668.429	1416.68
668.624	280.06
668.819	-725.49
669.013	-2118.11
669.208	691.7
669.402	-1513.96
669.597	1.54
669.792	-813.56
669.986	2745.81
670.181	-2433.5
670.375	173.57
670.57	-2484.7
670.764	-1163.76
670.959	-522.74
671.153	40.45
671.348	-246.27
671.542	2522.59
671.737	-2142.69
671.931	-3752.39
672.125	495.1
672.32	1072.62
672.514	1091.06
672.709	-1585.64
672.903	-61.95
673.097	-719.35
673.291	-1303.02
673.486	1471.98
673.68	83.45
673.874	-1024.5
674.069	-1161.71
674.263	747
674.457	1533.42
674.651	861.68
674.845	-588.28
675.04	3704.26
675.234	-1241.58
675.428	-199.16
675.622	-1386.99
675.816	-1778.15
676.01	-782.84
676.204	-334.33
676.398	269.82
676.592	-721.4
676.787	-866.8
676.981	50.69
677.175	241.15
677.369	-4745.66
677.563	-31.23
677.757	-113.15
677.95	-1317.36
678.144	-4041.15
678.338	-975.35
678.532	671.22
678.726	-2660.82
678.92	2895.32
679.114	-115.2
679.308	91.65
679.502	-4721.08
679.695	-2300.38
679.889	-528.89
680.083	-3731.91
680.277	-2570.71
680.471	-328.19
680.664	-1729
680.858	587.26
681.052	-53.76
681.245	-1126.89
681.439	718.33
681.633	-1137.13
681.826	-416.25
682.02	-893.43
682.214	632.31
682.407	-1284.59
682.601	-854.51
682.795	-336.38
682.988	-524.79
683.182	-1229.29
683.375	-565.75
683.569	-778.74
683.762	769.52
683.956	2022.88
684.149	1676.77
684.343	1867.24
684.536	-1327.6
684.73	148.99
684.923	-2736.6
685.116	-1749.48
685.31	2211.29
685.503	916.98
685.696	-326.14
685.89	1111.54
686.083	-2126.3
686.276	-922.1
686.47	249.34
686.663	-666.1
686.856	-291.32
687.05	1226.22
687.243	-524.79
687.436	1236.46
687.629	1914.34
687.822	501.24
688.016	-770.55
688.209	-999.92
688.402	474.62
688.595	-18.94
688.788	-2271.71
688.981	-1718.76
689.174	2797.01
689.367	163.33
689.561	-836.08
689.754	-3305.93
689.947	-520.7
690.14	144.89
690.333	-4637.11
690.526	-836.08
690.719	1617.38
690.912	2029.03
691.104	273.92
691.297	-336.38
691.49	167.42
691.683	-975.35
691.876	-3905.99
692.069	2860.5
692.262	-47.62
692.455	458.23
692.647	-240.12
692.84	-1479.15
693.033	527.86
693.226	648.69
693.419	-1184.24
693.611	-563.7
693.804	38.4
693.997	611.83
694.189	-176.64
694.382	-1278.44
694.575	3040.72
694.767	-211.45
694.96	-1331.69
695.153	-258.56
695.345	357.88
695.538	1773.03
695.731	452.09
695.923	-604.66
696.116	282.11
696.308	1715.69
696.501	73.21
696.693	2203.1
696.886	-952.82
697.078	-3514.83
697.271	599.54
697.463	724.47
697.655	-70.14
697.848	325.12
698.04	-997.87
698.233	-2318.81
698.425	-610.81
698.617	1461.74
698.81	-1286.64
699.002	-827.89
699.194	1787.36
699.387	925.17
699.579	-1098.22
699.771	-2028
699.963	-3805.64
700.156	-3037.65
700.348	1138.16
700.54	-209.4
700.732	-965.11
700.924	-698.87
701.117	-723.44
701.309	-1028.59
701.501	-3568.07
701.693	4267.45
701.885	-1020.4
702.077	1058.29
702.269	394.75
702.461	1930.72
702.653	235
702.845	-629.24
703.037	476.66
703.229	1922.53
703.421	-1255.92
703.613	-1366.51
703.805	3468.75
703.997	429.56
704.189	1187.31
704.381	-692.73
704.573	3792.33
704.765	-838.13
704.957	1512.94
705.148	-49.66
705.34	-961.01
705.532	71.17
705.724	-1139.18
705.916	-1874.4
706.107	1779.17
706.299	247.29
706.491	2133.47
706.682	1551.85
706.874	-492.02
707.066	-307.71
707.258	-1534.44
707.449	-492.02
707.641	5582.25
707.832	-135.68
708.024	-741.88
708.216	-336.38
708.407	802.29
708.599	-582.14
708.79	1822.18
708.982	-1647.08
709.173	-514.55
709.365	-1051.12
709.556	-98.81
709.748	-240.12
709.939	249.34
710.131	466.42
710.322	-2161.12
710.514	2594.26
710.705	-578.04
710.896	507.38
711.088	425.47
711.279	607.73
711.47	1902.05
711.662	1181.17
711.853	-1421.8
712.044	-2908.63
712.236	347.64
712.427	9.73
712.618	-2851.28
712.809	-1241.58
713	-481.78
713.192	1422.83
713.383	-651.77
713.574	343.55
713.765	110.08
713.956	-963.06
714.147	2020.83
714.338	-1610.22
714.53	1713.64
714.721	2538.97
714.912	-1114.61
715.103	-2427.35
715.294	714.23
715.485	1142.25
715.676	-2460.12
715.867	-3793.35
716.058	-668.15
716.249	1482.22
716.44	-389.63
716.63	-1688.04
716.821	-293.37
717.012	1324.52
717.203	-1196.53
717.394	-913.91
717.585	-3709.38
717.776	-846.32
717.966	-1112.56
718.157	-1475.05
718.348	617.97
718.539	-8.7
718.73	1332.72
718.92	2239.97
719.111	-989.68
719.302	441.85
719.492	-1016.3
719.683	855.54
719.874	-1155.57
720.064	3960.26
720.255	-2169.31
720.446	-391.67
720.636	1672.68
720.827	1306.09
721.017	464.38
721.208	-547.32
721.398	-942.58
721.589	916.98
721.779	345.59
721.97	-4821.43
722.16	-1907.17
722.351	-3672.52
722.541	-866.8
722.732	1080.82
722.922	1076.72
723.112	1748.45
723.303	-1755.62
723.493	-1147.37
723.683	1232.37
723.874	2252.25
724.064	400.89
724.254	2147.81
724.445	-977.39
724.635	2262.49
724.825	-3813.83
725.015	-780.79
725.206	-709.11
725.396	1345
725.586	-1335.79
725.776	1048.05
725.966	3655.11
726.157	1345
726.347	2119.14
726.537	-199.16
726.727	2182.62
726.917	-1415.66
727.107	-946.67
727.297	-4282.81
727.487	2092.51
727.677	-1036.78
727.867	230.91
728.057	-344.57
728.247	906.74
728.437	1093.1
728.627	-770.55
728.817	-707.06
729.007	417.27
729.197	769.52
729.387	-770.55
729.576	-336.38
729.766	1736.17
729.956	-375.29
730.146	-750.07
730.336	-2019.81
730.525	-315.9
730.715	-1176.05
730.905	126.46
731.095	-573.94
731.284	730.61
731.474	1816.04
731.664	-684.53
731.853	-3461.58
732.043	-1266.16
732.233	-2470.36
732.422	1547.75
732.612	-1425.9
732.802	468.47
732.991	290.3
733.181	-4100.55
733.37	-1612.26
733.56	-717.3
733.749	890.35
733.939	-2331.1
734.128	1015.28
734.318	2432.47
734.507	-506.36
734.697	-3019.22
734.886	1441.26
735.076	-1860.07
735.265	1928.67
735.454	603.64
735.644	-1825.25
735.833	-1384.94
736.022	-207.36
736.212	-1010.16
736.401	-655.86
736.59	1242.61
736.779	-619
736.969	-2324.96
737.158	140.8
737.347	-1429.99
737.536	-190.97
737.726	-1421.8
737.915	1175.02
738.104	800.24
738.293	-602.61
738.482	85.5
738.671	-1155.57
738.86	-3752.39
739.049	1033.71
739.238	-1249.77
739.427	-702.97
739.616	-2437.59
739.806	-2693.59
739.995	-4166.08
740.183	-2124.26
740.372	11.78
740.561	-780.79
740.75	-4716.98
740.939	298.49
741.128	542.2
741.317	1150.45
741.506	-903.67
741.695	329.21
741.884	830.96
742.072	1676.77
742.261	-182.78
742.45	-262.65
742.639	491
742.828	585.21
743.016	-657.91
743.205	-1663.46
743.394	-1483.24
743.582	1514.98
743.771	91.65
743.96	929.27
744.148	187.9
744.337	17.92
744.526	595.45
744.714	-811.51
744.903	4140.48
745.091	171.52
745.28	2317.79
745.468	1242.61
745.657	818.68
745.845	712.18
746.034	-455.16
746.222	335.35
746.411	806.39
746.599	1236.46
746.788	1099.25
746.976	-467.45
747.165	302.59
747.353	1019.38
747.541	4920.76
747.73	-1307.12
747.918	2354.65
748.106	1809.89
748.295	2581.98
748.483	1641.96
748.671	1275.37
748.859	1283.56
749.048	2885.08
749.236	1013.23
749.424	599.54
749.612	3337.68
749.8	1379.82
749.989	1177.07
750.177	1840.61
750.365	2471.39
750.553	2321.88
750.741	-410.11
750.929	5526.96
751.117	1388.01
751.305	2239.97
751.493	1330.67
751.681	292.35
751.869	1744.36
752.057	2954.71
752.245	1215.98
752.433	3366.35
752.621	2311.64
752.809	3567.05
752.997	3120.59
753.185	2829.78
753.373	2125.28
753.56	1879.52
753.748	3200.46
753.936	2190.81
754.124	2905.56
754.312	1623.53
754.499	4531.64
754.687	3427.79
754.875	3857.86
755.063	1981.92
755.25	3913.16
755.438	4703.67
755.626	3644.87
755.813	1058.29
756.001	3724.74
756.189	1656.29
756.376	2049.5
756.564	2631.13
756.751	3603.91
756.939	1220.08
757.127	4896.18
757.314	2522.59
757.502	1072.62
757.689	4734.39
757.877	3769.8
758.064	4109.76
758.251	1727.97
758.439	4169.15
758.626	5182.9
758.814	2063.84
759.001	4804.02
759.188	4783.54
759.376	863.73
759.563	4095.43
759.75	4412.86
759.938	2342.36
760.125	2274.78
760.312	3159.5
760.5	2770.39
760.687	3972.55
760.874	2059.74
761.061	4046.27
761.248	669.17
761.436	6901.14
761.623	2801.11
761.81	3435.98
761.997	4347.33
762.184	2700.76
762.371	2448.86
762.558	2819.54
762.745	4695.48
762.932	3397.07
763.119	3509.71
763.306	3278.29
763.493	3419.6
763.68	3626.44
763.867	5178.8
764.054	1783.27
764.241	2532.83
764.428	5066.16
764.615	3194.32
764.802	3102.16
764.989	2176.48
765.176	3466.7
765.362	4535.74
765.549	2614.74
765.736	10843.48
765.923	4912.57
766.11	5043.64
766.296	3200.46
766.483	808.44
766.67	3433.93
766.857	4337.09
767.043	2156
767.23	3780.04
767.417	5049.78
767.603	4040.13
767.79	2899.41
767.976	5868.97
768.163	5402.03
768.35	4220.35
768.536	2962.9
768.723	3048.91
768.909	5334.45
769.096	6026.66
769.282	3321.29
769.469	2930.13
769.655	6108.58
769.842	4302.27
770.028	1986.02
770.214	3710.41
770.401	3800.52
770.587	2622.94
770.774	650.74
770.96	501.24
771.146	3898.82
771.333	4236.74
771.519	2799.06
771.705	3913.16
771.891	2317.79
772.078	8381.82
772.264	4863.41
772.45	3237.33
772.636	3632.58
772.822	3186.13
773.009	7126.42
773.195	4173.25
773.381	4165.06
773.567	4873.65
773.753	2794.97
773.939	1795.56
774.125	1762.79
774.311	3734.98
774.497	1902.05
774.683	2889.17
774.869	5248.43
775.055	6710.68
775.241	2805.21
775.427	4195.78
775.613	2778.58
775.799	6067.62
775.985	2432.47
776.171	3741.13
776.357	4189.63
776.543	4029.89
776.729	3104.21
776.914	3849.67
777.1	5195.18
777.286	7767.43
777.472	3792.33
777.657	3435.98
777.843	6868.38
778.029	6753.69
778.215	4607.42
778.4	3904.96
778.586	7019.92
778.772	5701.03
778.957	5186.99
779.143	2717.14
779.329	3970.5
779.514	3030.48
779.7	4308.41
779.885	1926.63
780.071	4804.02
780.256	4902.33
780.442	4498.88
780.627	2174.43
780.813	5406.13
780.998	6266.27
781.184	5356.97
781.369	3200.46
781.555	5596.59
781.74	4230.59
781.925	6598.04
782.111	3677.64
782.296	4435.39
782.481	5217.71
782.667	4607.42
782.852	5897.64
783.037	4414.91
783.223	4273.6
783.408	4496.83
783.593	5889.45
783.778	3597.77
783.963	5316.01
784.149	6045.09
784.334	4296.13
784.519	4791.73
784.704	3483.08
784.889	5236.14
785.074	3599.82
785.259	4695.48
785.444	7591.31
785.629	3833.29
785.814	3048.91
785.999	4758.97
786.184	7939.46
786.369	4400.57
786.554	2878.93
786.739	6593.95
786.924	5850.53
787.109	5631.4
787.294	7189.91
787.479	7056.79
787.664	6170.02
787.849	7595.4
788.034	7773.58
788.218	6903.19
788.403	7536.01
788.588	9174.39
788.773	8701.31
788.957	7693.71
789.142	10796.38
789.327	10249.57
789.512	10022.25
789.696	14107.94
789.881	15082.78
790.066	12084.55
790.25	15580.43
790.435	13421.88
790.619	15940.88
790.804	15340.82
790.989	15222.04
791.173	18533.61
791.358	16723.2
791.542	15256.86
791.727	16098.57
791.911	16467.2
792.096	15914.25
792.28	16936.19
792.465	16897.28
792.649	17198.33
792.833	18451.69
793.018	17532.15
793.202	19166.43
793.386	21075.13
793.571	19811.54
793.755	19035.36
793.939	17544.44
794.124	18470.12
794.308	19246.3
794.492	18185.45
794.676	17614.07
794.861	18474.21
795.045	19563.73
795.229	16092.43
795.413	19111.13
795.597	17710.32
795.781	17267.96
795.966	20141.26
796.15	17233.15
796.334	21038.27
796.518	18978.01
796.702	15359.25
796.886	16442.63
797.07	17294.58
797.254	16147.72
797.438	14064.94
797.622	13434.16
797.806	14200.1
797.99	14918.94
798.174	13331.76
798.358	14894.36
798.541	14587.17
798.725	15187.22
798.909	12229.96
799.093	12766.53
799.277	12260.68
799.461	13100.34
799.644	8592.76
799.828	11621.71
800.012	13468.98
800.196	11218.26
800.379	11105.62
800.563	9336.18
800.747	12754.24
800.93	10577.25
801.114	10263.91
801.298	9436.53
801.481	12948.79
801.665	12737.85
801.848	8777.08
802.032	9903.46
802.216	14015.79
802.399	9940.33
802.583	8850.81
802.766	8027.53
802.95	10806.62
803.133	11990.35
803.317	8545.66
803.5	8396.16
803.683	9946.47
803.867	8353.15
804.05	11066.71
804.233	12051.78
804.417	12485.95
804.6	9389.42
804.783	10423.65
804.967	11650.38
805.15	10493.28
805.333	9997.67
805.517	10102.12
805.7	7970.18
805.883	9168.24
806.066	10855.77
806.249	11310.42
806.432	7466.38
806.616	9657.71
806.799	7619.98
806.982	8506.75
807.165	9602.41
807.348	9117.04
807.531	8181.12
807.714	8689.02
807.897	9678.19
808.08	10085.73
808.263	10689.88
808.446	10296.67
808.629	9127.28
808.812	8512.89
808.995	9178.48
809.178	11144.53
809.361	10495.33
809.544	10354.02
809.726	11597.14
809.909	10712.41
810.092	9919.85
810.275	10216.8
810.458	12105.03
810.64	10470.75
810.823	9786.73
811.006	9244.02
811.189	11679.05
811.371	8127.88
811.554	8801.66
811.737	10089.83
811.919	10308.96
812.102	8203.65
812.285	6579.61
812.467	9571.69
812.65	8406.4
812.832	7749
813.015	10159.46
813.197	10118.5
813.38	10104.17
813.562	10958.17
813.745	7060.88
813.927	6620.57
814.11	9792.87
814.292	8222.08
814.475	7290.26
814.657	8050.05
814.839	9534.83
815.022	7200.15
815.204	11554.13
815.386	11085.14
815.569	10095.97
815.751	6335.9
815.933	9661.8
816.116	9602.41
816.298	9659.76
816.48	7959.94
816.662	7464.33
816.844	8666.49
817.027	8592.76
817.209	7789.96
817.391	6847.9
817.573	7961.99
817.755	8082.82
817.937	8822.14
818.119	7654.8
818.301	7392.66
818.483	8080.77
818.665	7622.03
818.847	9061.75
819.029	8424.83
819.211	6641.05
819.393	8439.17
819.575	10894.68
819.757	9874.79
819.939	8871.29
820.121	8064.39
820.303	8361.34
820.485	11169.11
820.666	10599.77
820.848	10640.73
821.03	7777.67
821.212	9753.96
821.394	5744.04
821.575	8586.62
821.757	9946.47
821.939	8547.71
822.121	8359.3
822.302	10771.8
822.484	9184.63
822.666	5430.7
822.847	7017.88
823.029	4824.5
823.21	8584.57
823.392	5496.24
823.573	7220.63
823.755	6073.76
823.937	6239.65
824.118	6383.01
824.3	12258.63
824.481	6352.29
824.662	6684.06
824.844	6915.48
825.025	8330.62
825.207	5606.83
825.388	7382.42
825.569	5719.46
825.751	6352.29
825.932	9770.35
826.113	5209.52
826.295	8306.05
826.476	7722.38
826.657	6888.85
826.839	6477.21
827.02	7622.03
827.201	10124.65
827.382	6745.5
827.563	7712.14
827.744	6335.9
827.926	7196.05
828.107	8328.58
828.288	4974
828.469	7054.74
828.65	7959.94
828.831	4439.48
829.012	6401.44
829.193	8342.91
829.374	5584.3
829.555	8746.36
829.736	11617.61
829.917	9420.14
830.098	7961.99
830.279	4281.79
830.46	5549.48
830.641	6368.67
830.822	6335.9
831.002	8285.57
831.183	5356.97
831.364	7605.64
831.545	7478.67
831.726	6368.67
831.906	6075.81
832.087	7355.79
832.268	7028.12
832.449	7773.58
832.629	4095.43
832.81	5367.21
832.991	4840.89
833.171	6639
833.352	6477.21
833.532	7763.34
833.713	5250.48
833.894	5680.55
834.074	3730.89
834.255	4859.32
834.435	4939.19
834.616	4832.69
834.796	5318.06
834.977	6565.28
835.157	9164.15
835.338	4388.29
835.518	3698.12
835.698	5617.07
835.879	4228.54
836.059	5694.89
836.239	5461.42
836.42	5453.23
836.6	5817.77
836.78	3370.44
836.961	4462.01
837.141	6987.16
837.321	4163.01
837.501	8836.47
837.682	4451.77
837.862	5086.64
838.042	10718.56
838.222	4396.48
838.402	4767.16
838.582	5146.03
838.763	5828.01
838.943	4890.04
839.123	7196.05
839.303	5367.21
839.483	6481.31
839.663	2534.87
839.843	15611.15
840.023	6761.88
840.203	6684.06
840.383	4570.55
840.563	4283.84
840.742	4953.52
840.922	3980.74
841.102	6225.31
841.282	4863.41
841.462	5057.97
841.642	4636.09
841.822	3431.88
842.001	2430.43
842.181	5658.03
842.361	5879.21
842.541	6475.17
842.72	5637.55
842.9	4654.52
843.08	5223.86
843.259	4556.22
843.439	4468.16
843.619	3964.36
843.798	4707.77
843.978	5768.62
844.157	3947.97
844.337	5889.45
844.517	3937.73
844.696	6829.46
844.876	5637.55
845.055	3311.05
845.235	5778.86
845.414	4808.12
845.593	3122.64
845.773	3802.57
845.952	2162.14
846.132	2704.85
846.311	3186.13
846.49	5336.49
846.67	5492.14
846.849	3741.13
847.028	3059.15
847.208	5612.97
847.387	3732.94
847.566	7036.31
847.745	3241.42
847.924	5404.08
848.104	5377.45
848.283	5154.23
848.462	6192.55
848.641	6325.66
848.82	4558.27
848.999	6696.35
849.178	3788.23
849.358	5778.86
849.537	4599.23
849.716	3777.99
849.895	2958.8
850.074	6303.14
850.253	6641.05
850.432	5125.55
850.61	4367.81
850.789	3868.1
850.968	6655.39
851.147	6346.14
851.326	3339.73
851.505	4521.4
851.684	4685.24
851.863	6409.63
852.041	4892.09
852.22	4226.5
852.399	3411.4
852.578	5445.04
852.756	2479.58
852.935	3941.83
853.114	6075.81
853.293	2862.55
853.471	7452.05
853.65	4812.21
853.828	3886.53
854.007	3179.98
854.186	4879.8
854.364	6178.21
854.543	4992.44
854.721	3751.37
854.9	5336.49
855.078	6436.25
855.257	3878.34
855.435	1644.01
855.614	4687.29
855.792	3794.37
855.971	3917.25
856.149	2504.15
856.327	5082.55
856.506	4603.32
856.684	3769.8
856.862	3249.61
857.041	1207.79
857.219	5836.2
857.397	3298.77
857.576	3552.71
857.754	3521.99
857.932	5586.35
858.11	4042.18
858.288	3857.86
858.467	2356.7
858.645	2397.66
858.823	3610.06
859.001	4793.78
859.179	2817.49
859.357	3337.68
859.535	4914.61
859.713	5770.66
859.891	5082.55
860.069	7810.44
860.247	3476.94
860.425	1816.04
860.603	4730.3
860.781	6114.72
860.959	4611.51
861.137	1705.45
861.315	2739.67
861.493	4324.8
861.67	5647.79
861.848	5526.96
862.026	3227.09
862.204	3304.91
862.382	3734.98
862.559	3804.61
862.737	5035.44
862.915	5522.86
863.093	3632.58
863.27	5678.51
863.448	5678.51
863.626	4232.64
863.803	3782.09
863.981	3089.87
864.158	1644.01
864.336	3141.07
864.514	2536.92
864.691	2215.39
864.869	3270.09
865.046	2489.82
865.224	4132.29
865.401	5432.75
865.578	2919.89
865.756	6147.49
865.933	1615.34
866.111	5533.1
866.288	2670.04
866.465	3337.68
866.643	2219.49
866.82	2928.08
866.997	3057.11
867.175	3345.87
867.352	3030.48
867.529	1267.18
867.706	2489.82
867.884	3667.4
868.061	3577.29
868.238	2928.08
868.415	2143.71
868.592	2649.56
868.77	2588.12
868.947	4654.52
869.124	2964.95
869.301	1543.66
869.478	3657.16
869.655	689.65
869.832	3630.54
870.009	6196.64
870.186	6026.66
870.363	3841.48
870.54	3640.78
870.717	3081.68
870.894	3413.45
871.071	4232.64
871.247	1781.22
871.424	2450.91
871.601	3034.58
871.778	2379.23
871.955	3329.49
872.132	3780.04
872.308	3345.87
872.485	3171.79
872.662	2704.85
872.839	5363.12
873.015	2446.81
873.192	3618.25
873.369	2866.64
873.545	2833.88
873.722	3331.53
873.898	3286.48
874.075	2631.13
874.252	3401.16
874.428	2958.8
874.605	3210.7
874.781	542.2
874.958	1838.56
875.134	3913.16
875.311	3808.71
875.487	3818.95
875.663	5459.37
875.84	3210.7
876.016	4244.93
876.193	3939.78
876.369	2039.26
876.545	2029.03
876.722	2069.98
876.898	3169.74
877.074	3507.66
877.25	4079.04
877.427	8942.97
877.603	2784.73
877.779	2624.98
877.955	2782.68
878.132	5320.11
878.308	4562.36
878.484	6221.22
878.66	1693.16
878.836	3255.76
879.012	2928.08
879.188	3401.16
879.364	3149.26
879.54	2346.46
879.716	1332.72
879.892	3286.48
880.068	4564.41
880.244	6473.12
880.42	1906.15
880.596	2528.73
880.772	2205.15
880.948	2151.9
881.124	3718.6
881.3	7724.43
881.475	3026.39
881.651	2893.27
881.827	2602.46
882.003	2797.01
882.178	919.03
882.354	2516.44
882.53	1988.07
882.706	3059.15
882.881	3497.42
883.057	1654.25
883.233	2686.42
883.408	4693.43
883.584	2174.43
883.759	1355.24
883.935	1213.93
884.111	1105.39
884.286	2297.31
884.462	609.78
884.637	2295.26
884.813	1179.12
884.988	2430.43
885.164	6043.04
885.339	1508.84
885.514	4376
885.69	1854.95
885.865	1060.34
886.04	3579.34
886.216	2215.39
886.391	3816.9
886.566	2809.3
886.742	837.11
886.917	2731.48
887.092	5150.13
887.267	1005.04
887.443	654.84
887.618	1693.16
887.793	1693.16
887.968	3194.32
888.143	978.42
888.318	2663.9
888.494	3677.64
888.669	2598.36
888.844	2762.2
889.019	2430.43
889.194	2377.18
889.369	1740.26
889.544	2086.37
889.719	4079.04
889.894	5246.38
890.069	3405.26
890.243	3790.28
890.418	2225.63
890.593	1652.2
890.768	2827.73
890.943	4746.68
891.118	2194.91
891.293	2862.55
891.467	1619.43
891.642	5877.16
891.817	2072.03
891.992	3130.83
892.166	1732.07
892.341	4160.96
892.516	2620.89
892.69	3028.43
892.865	730.61
893.04	2450.91
893.214	4257.22
893.389	3354.06
893.563	5709.22
893.738	6157.73
893.912	1973.73
894.087	2944.47
894.261	4298.17
894.436	1699.3
894.61	5295.54
894.785	2850.26
894.959	2768.34
895.134	4527.55
895.308	1457.64
895.482	3698.12
895.657	1525.22
895.831	1707.49
896.005	8639.87
896.18	1971.68
896.354	2811.35
896.528	638.45
896.702	2985.43
896.877	4726.2
897.051	898.55
897.225	3098.06
897.399	3237.33
897.573	1850.85
897.747	2969.04
897.922	2516.44
898.096	4715.96
898.27	1154.54
898.444	1744.36
898.618	2903.51
898.792	2545.11
898.966	2684.38
899.14	3462.6
899.314	3253.71
899.488	4498.88
899.662	2336.22
899.835	2692.57
900.009	2428.38
900.183	718.33
900.357	5893.54
900.531	1340.91
900.705	1398.25
900.878	308.73
901.052	1031.66
901.226	2770.39
901.4	2467.29
901.573	693.75
901.747	284.16
901.921	1494.51
902.095	1621.48
902.268	3225.04
902.442	232.96
902.615	-748.02
902.789	2510.3
902.963	7034.26
903.136	851.44
903.31	3372.49
903.483	-338.43
903.657	2663.9
903.83	1258.99
904.004	-1815.01
904.177	1238.51
904.35	200.19
904.524	-1700.33
904.697	771.57
904.871	900.59
905.044	1822.18
905.217	5137.84
905.391	3694.02
905.564	1396.2
905.737	892.4
905.91	56.83
906.084	-2009.57
906.257	835.06
906.43	-3293.65
906.603	263.68
906.776	-4325.82
906.949	-967.15
907.123	-1176.05
907.296	-250.36
907.469	2143.71
907.642	-410.11
907.815	1566.18
907.988	-18.94
908.161	-971.25
908.334	-1163.76
908.507	1039.86
908.68	706.04
908.853	282.11
909.026	-672.25
909.199	-551.42
909.371	2426.33
909.544	1469.93
909.717	-55.81
909.89	-1067.5
910.063	-1335.79
910.236	-145.92
910.408	228.86
910.581	-3027.41
910.754	-3557.83
910.927	-3498.44
911.099	269.82
911.272	595.45
911.445	177.66
911.617	-528.89
911.79	1879.52
911.962	-393.72
912.135	-987.63
912.308	142.85
912.48	-1800.68
912.653	-1176.05
912.825	-889.33
912.998	-705.01
913.17	1283.56
913.343	1619.43
913.515	-702.97
913.687	-1630.7
913.86	255.48
914.032	1541.61
914.205	-496.12
914.377	26.11
914.549	-4630.97
914.721	620.02
914.894	-1583.59
915.066	-428.54
915.238	-1708.52
915.41	2182.62
915.583	267.77
915.755	-1616.36
915.927	85.5
916.099	1039.86
916.271	-680.44
916.443	-1804.77
916.616	-2300.38
916.788	16977.15
916.96	2387.42
917.132	-4770.23
917.304	-244.22
917.476	1727.97
917.648	253.44
917.82	-4151.74
917.992	1164.78
918.164	1013.23
918.335	343.55
918.507	1293.8
918.679	-3092.94
918.851	1625.58
919.023	-496.12
919.195	97.79
919.366	-2224.61
919.538	-4069.83
919.71	-1659.37
919.882	-1360.36
920.053	-1882.6
920.225	-1184.24
920.397	1451.5
920.568	-1776.1
920.74	-1137.13
920.912	-1073.65
921.083	-2279.9
921.255	-1894.88
921.426	-2095.58
921.598	5.63
921.77	-954.87
921.941	-2021.86
922.113	-1815.01
922.284	1236.46
922.455	-1130.99
922.627	-2329.05
922.798	-2071.01
922.97	-1638.89
923.141	-1559.02
923.312	-4575.67
923.484	630.26
923.655	-3578.31
923.826	771.57
923.998	-1001.97
924.169	665.08
924.34	-1743.33
924.511	95.74
924.683	-262.65
924.854	-1118.7
925.025	-184.83
925.196	843.25
925.367	824.82
925.538	196.09
925.709	-98.81
925.881	511.48
926.052	-1358.32
926.223	-631.29
926.394	972.27
926.565	-913.91
926.736	-4768.18
926.907	-1735.14
927.078	-107.01
927.248	4107.71
927.419	781.81
927.59	-4016.58
927.761	894.45
927.932	779.76
928.103	-449.02
928.274	-1321.45
928.444	-436.73
928.615	-1272.3
928.786	-1178.09
928.957	-2222.56
929.127	-1075.7
929.298	-16.9
929.469	-1348.08
929.639	-590.33
929.81	-317.95
929.981	-160.25
930.151	245.24
930.322	3044.82
930.492	605.69
930.663	3431.88
930.833	-1614.31
931.004	-287.23
931.174	329.21
931.345	-72.19
931.515	-1772
931.686	-322.04
931.856	1973.73
932.027	-2431.45
932.197	859.63
932.367	-1688.04
932.538	1324.52
932.708	-1391.08
932.878	24.06
933.048	-748.02
933.219	-1012.21
933.389	1920.48
933.559	-1511.91
933.729	-1845.73
933.9	171.52
934.07	-2724.31
934.24	-2521.56
934.41	103.93
934.58	30.21
934.75	820.72
934.92	-3725.77
935.09	7.68
935.26	-1124.85
935.43	2311.64
935.6	-762.36
935.77	632.31
935.94	359.93
936.11	-1356.27
936.28	-1593.83
936.45	873.97
936.62	79.36
936.79	574.97
936.96	-659.96
937.129	-733.68
937.299	128.51
937.469	97.79
937.639	-68.09
937.808	-903.67
937.978	-3477.96
938.148	1359.34
938.317	-61.95
938.487	327.16
938.657	-1638.89
938.826	-2021.86
938.996	-596.47
939.166	-4809.14
939.335	-2859.48
939.505	7.68
939.674	-1298.92
939.844	-2130.4
940.013	85.5
940.183	-2990.55
940.352	-1917.41
940.522	-662.01
940.691	-1057.26
940.86	603.64
941.03	-760.31
941.199	56.83
941.368	562.68
941.538	1308.14
941.707	-1964.51
941.876	-551.42
942.046	912.88
942.215	-131.58
942.384	-2118.11
942.553	-541.18
942.722	-616.95
942.892	1652.2
943.061	-3641.8
943.23	345.59
943.399	3362.25
943.568	-700.92
943.737	1848.8
943.906	-82.43
944.075	-1571.3
944.244	841.2
944.413	-840.18
944.582	-3232.21
944.751	-55.81
944.92	-406.01
945.089	572.92
945.258	-610.81
945.427	-424.44
945.596	-668.15
945.764	-645.62
945.933	-1317.36
946.102	1017.33
946.271	-715.25
946.44	-889.33
946.608	-1245.68
946.777	-858.61
946.946	-322.04
947.114	2057.7
947.283	-895.47
947.452	-2167.26
947.62	-1112.56
947.789	939.51
947.958	-1196.53
948.126	529.91
948.295	314.88
948.463	-954.87
948.632	-1112.56
948.8	-614.9
948.969	-2599.38
949.137	-815.6
949.305	-1741.29
949.474	859.63
949.642	712.18
949.811	566.78
949.979	-363
950.147	-2908.63
950.316	-2843.09
950.484	-2349.53
950.652	-1456.62
950.82	1392.11
950.989	-4383.17
951.157	-1503.72
951.325	-2210.27
951.493	1056.24
951.661	751.09
951.83	730.61
951.998	-3054.03
952.166	-596.47
952.334	-2441.69
952.502	2825.68
952.67	1082.86
952.838	671.22
953.006	2457.05
953.174	144.89
953.342	349.69
953.51	-393.72
953.678	-668.15
953.846	-3563.98
954.014	-438.78
954.181	2248.16
954.349	-1575.4
954.517	-1821.16
954.685	-1886.69
954.853	-1186.29
955.02	-2075.1
955.188	-2359.77
955.356	-1393.13
955.524	1162.73
955.691	-489.98
955.859	-1724.9
956.027	-477.69
956.194	2766.29
956.362	-958.96
956.529	732.66
956.697	-1120.75
956.865	437.75
957.032	1541.61
957.2	-1941.99
957.367	-2304.48
957.535	503.29
957.702	703.99
957.87	-2109.92
958.037	218.62
958.204	-1122.8
958.372	1078.77
958.539	253.44
958.706	-506.36
958.874	3132.88
959.041	517.62
959.208	-2015.71
959.376	-1178.09
959.543	974.32
959.71	-180.73
959.877	1183.21
960.044	-186.88
960.212	2586.07
960.379	3161.55
960.546	415.23
960.713	-3365.32
960.88	-420.35
961.047	-0.51
961.214	24497.29
961.381	2262.49
961.548	-905.71
961.715	-178.69
961.882	-2527.71
962.049	-895.47
962.216	-883.19
962.383	-1513.96
962.55	-823.8
962.717	1666.53
962.883	837.11
963.05	2534.87
963.217	632.31
963.384	-1231.34
963.551	-379.39
963.717	-1477.1
963.884	32.26
964.051	523.77
964.218	1355.24
964.384	5825.96
964.551	-1972.71
964.717	-3686.86
964.884	-692.73
965.051	-1487.34
965.217	-2187.74
965.384	-3594.7
965.55	1019.38
965.717	867.83
965.883	116.22
966.05	-1339.88
966.216	2078.18
966.383	1105.39
966.549	-145.92
966.716	-928.24
966.882	-2099.68
967.048	-1378.79
967.215	-2413.02
967.381	-1135.09
967.547	1787.36
967.713	2319.84
967.88	519.67
968.046	-2748.89
968.212	-733.68
968.378	1037.81
968.545	-2656.73
968.711	1019.38
968.877	-582.14
969.043	-90.62
969.209	-2109.92
969.375	1191.41
969.541	2010.59
969.707	2786.77
969.873	1129.97
970.039	-700.92
970.205	1693.16
970.371	4910.52
970.537	1601
970.703	341.5
970.869	-877.04
971.035	1826.28
971.201	153.09
971.367	-1548.78
971.532	-383.48
971.698	-475.64
971.864	1338.86
972.03	-2042.34
972.195	-1272.3
972.361	1893.86
972.527	-1225.2
972.693	3309.01
972.858	1592.81
973.024	-2470.36
973.19	-582.14
973.355	339.45
973.521	642.55
973.686	1369.58
973.852	-3058.13
974.017	4488.64
974.183	-2968.02
974.348	667.13
974.514	-2556.38
974.679	-164.35
974.845	-1419.75
975.01	-244.22
975.175	-4078.02
975.341	17941.74
975.506	-23.04
975.672	439.8
975.837	3886.53
976.002	-145.92
976.167	-735.73
976.333	4746.68
976.498	-930.29
976.663	-1870.31
976.828	898.55
976.993	-975.35
977.159	146.94
977.324	722.42
977.489	3104.21
977.654	-10.75
977.819	-1145.33
977.984	-471.54
978.149	2739.67
978.314	1422.83
978.479	-1096.18
978.644	-1884.64
978.809	-625.14
978.974	-2052.58
979.139	2033.12
979.304	114.17
979.469	-713.21
979.633	-741.88
979.798	-401.91
979.963	-1380.84
980.128	2887.12
980.293	-2564.57
980.457	-1518.06
980.622	-2724.31
980.787	-2595.29
980.951	-193.02
981.116	-453.11
981.281	-1884.64
981.445	-84.48
981.61	904.69
981.775	-1694.18
981.939	-3291.6
982.104	2119.14
982.268	1222.13
982.433	1435.11
982.597	-1563.11
982.762	2637.27
982.926	736.76
983.091	-766.45
983.255	-3817.93
983.419	-1638.89
983.584	1592.81
983.748	44.54
983.912	-53.76
984.077	1910.24
984.241	1981.92
984.405	-1976.8
984.57	2053.6
984.734	-414.2
984.898	-219.64
985.062	-1067.5
985.226	-1354.22
985.39	2569.69
985.555	83.45
985.719	2211.29
985.883	284.16
986.047	-1341.93
986.211	648.69
986.375	177.66
986.539	-1169.9
986.703	-1317.36
986.867	-68.09
987.031	521.72
987.195	-1085.94
987.359	-1610.22
987.523	300.54
987.686	-2206.17
987.85	-1794.53
988.014	701.94
988.178	-1047.02
988.342	900.59
988.506	634.36
988.669	-307.71
988.833	337.4
988.997	826.87
989.16	-514.55
989.324	-164.35
989.488	2788.82
989.651	200.19
989.815	3179.98
989.979	-1049.07
990.142	138.75
990.306	-457.21
990.469	1797.6
990.633	972.27
990.796	2182.62
990.96	-823.8
991.123	298.49
991.286	1940.96
991.45	959.99
991.613	-1620.46
991.777	-2752.98
991.94	-2372.06
992.103	556.54
992.267	2594.26
992.43	-848.37
992.593	417.27
992.756	542.2
992.92	564.73
993.083	636.41
993.246	-303.61
993.409	-4239.81
993.572	-2159.07
993.735	-459.26
993.899	357.88
994.062	-418.3
994.225	-891.38
994.388	161.28
994.551	2590.17
994.714	-360.95
994.877	-526.84
995.04	-1575.4
995.203	-1206.77
995.366	1320.43
995.528	-1384.94
995.691	1002.99
995.854	-1481.19
996.017	-793.08
996.18	-3494.35
996.343	-377.34
996.505	1799.65
996.668	759.28
996.831	-668.15
996.994	-377.34
997.156	-307.71
997.319	-1206.77
997.482	1611.24
997.644	-1663.46
997.807	1308.14
997.97	-2599.38
998.132	-1180.14
998.295	1414.63
998.457	562.68
998.62	-1130.99
998.782	-1616.36
998.945	325.12
999.107	-14.85
999.27	65.02
999.432	-721.4
999.594	728.56
999.757	2016.74
999.919	243.2
1000.081	-2243.04
1000.244	-190.97
1000.406	-53.76
1000.568	-147.97
1000.731	1922.53
1000.893	1531.37
1001.055	1641.96
1001.217	-565.75
1001.379	-2539.99
1001.542	-1350.12
1001.704	3134.93
1001.866	-692.73
1002.028	1097.2
1002.19	343.55
1002.352	-1153.52
1002.514	-1540.58
1002.676	5567.92
1002.838	1746.41
1003	-532.98
1003.162	-1190.38
1003.324	2162.14
1003.486	1162.73
1003.648	-1165.81
1003.809	-551.42
1003.971	898.55
1004.133	95.74
1004.295	-104.96
1004.457	-268.8
1004.618	712.18
1004.78	171.52
1004.942	3603.91
1005.104	-33.28
1005.265	-1405.42
1005.427	890.35
1005.589	-733.68
1005.75	337.4
1005.912	1863.14
1006.073	2131.42
1006.235	278.01
1006.396	-143.87
1006.558	-119.29
1006.72	-84.48
1006.881	290.3
1007.042	-1180.14
1007.204	-1858.02
1007.365	-1110.51
1007.527	1095.15
1007.688	3040.72
1007.849	69.12
1008.011	-12.8
1008.172	536.06
1008.333	810.48
1008.495	-193.02
1008.656	-2351.58
1008.817	1035.76
1008.978	2696.66
1009.139	-590.33
1009.301	736.76
1009.462	-3879.36
1009.623	1011.18
1009.784	-1184.24
1009.945	243.2
1010.106	962.03
1010.267	151.04
1010.428	-1317.36
1010.589	-2675.16
1010.75	108.03
1010.911	-1229.29
1011.072	-2740.69
1011.233	890.35
1011.394	-487.93
1011.555	155.13
1011.716	744.95
1011.877	-1343.98
1012.037	478.71
1012.198	-1229.29
1012.359	663.03
1012.52	-1378.79
1012.68	-262.65
1012.841	126.46
1013.002	318.97
1013.163	-760.31
1013.323	249.34
1013.484	-2413.02
1013.644	-1303.02
1013.805	810.48
1013.966	-481.78
1014.126	2715.09
1014.287	-612.85
1014.447	-332.28
1014.608	1404.39
1014.768	-1245.68
1014.929	1299.95
1015.089	-1212.91
1015.249	261.63
1015.41	19.97
1015.57	1078.77
1015.731	-2791.89
1015.891	-604.66
1016.051	724.47
1016.211	-483.83
1016.372	1449.45
1016.532	-717.3
1016.692	-205.31
1016.852	560.63
1017.013	-535.03
1017.173	-160.25
1017.333	-1053.17
1017.493	-883.19
1017.653	-1382.89
1017.813	-2398.68
1017.973	-223.74
1018.133	-1616.36
1018.293	-2034.14
1018.453	-180.73
1018.613	-2834.9
1018.773	2143.71
1018.933	-135.68
1019.093	1005.04
1019.253	-14.85
1019.413	1201.65
1019.573	-2591.19
1019.733	-309.76
1019.892	2016.74
1020.052	-440.83
1020.212	513.53
1020.372	308.73
1020.531	1695.21
1020.691	-168.45
1020.851	544.25
1021.01	323.07
1021.17	226.81
1021.33	-512.5
1021.489	-1688.04
1021.649	89.6
1021.808	36.35
1021.968	417.27
1022.127	-4317.63
1022.287	2002.4
1022.446	-580.09
1022.606	703.99
1022.765	-1528.3
1022.925	2604.5
1023.084	1037.81
1023.244	1807.84
1023.403	-621.05
1023.562	-967.15
1023.722	-475.64
1023.881	-487.93
1024.04	-166.4
1024.199	767.48
1024.359	69.12
1024.518	-2306.52
1024.677	-877.04
1024.836	-834.04
1024.995	933.36
1025.154	-1022.45
1025.313	-109.05
1025.473	-1266.16
1025.632	-1231.34
1025.791	781.81
1025.95	-1380.84
1026.109	-797.17
1026.268	308.73
1026.427	1269.23
1026.586	1867.24
1026.744	255.48
1026.903	6053.28
1027.062	-246.27
1027.221	1011.18
1027.38	267.77
1027.539	1209.84
1027.698	4812.21
1027.856	-1317.36
1028.015	818.68
1028.174	402.94
1028.333	288.25
1028.491	4089.28
1028.65	1578.47
1028.808	3947.97
1028.967	794.1
1029.126	622.07
1029.284	-2009.57
1029.443	454.14
1029.601	-610.81
1029.76	-1589.74
1029.918	-1225.2
1030.077	726.52
1030.235	2266.59
1030.394	-657.91
1030.552	1156.59
1030.711	2815.45
1030.869	-498.17
1031.027	-569.85
1031.186	-3580.36
1031.344	-1219.05
1031.502	-227.84
1031.661	1351.15
1031.819	2059.74
1031.977	1342.96
1032.135	-1769.96
1032.293	-942.58
1032.452	-1495.53
1032.61	3765.7
1032.768	-1696.23
1032.926	112.13
1033.084	3282.38
1033.242	-616.95
1033.4	-1556.97
1033.558	747
1033.716	-324.09
1033.874	-754.16
1034.032	-107.01
1034.19	-291.32
1034.348	2350.56
1034.506	-2200.03
1034.664	703.99
1034.822	-1808.87
1034.979	2506.2
1035.137	996.85
1035.295	-209.4
