Data from MgO Tm LN_USBC44471_15-14-34-706.txt Node
Date: Wed Jul 29 15:14:34 MDT 2020
User: Montana Instruments
Spectrometer: USBC4447
Scans to average: 1
Trigger mode: 4
Integration Time (sec): 1.000000E1
Electric dark correction enabled: true
Boxcar width: 0
XAxis mode: Wavelengths
Number of Pixels in Spectrum: 3648
>>>>>Begin Spectral Data<<<<<
344.991	-5334.96
345.205	-5334.96
345.419	-5334.96
345.633	-5320.62
345.847	-5384.11
346.061	-235.52
346.275	700.41
346.489	-1286.12
346.703	-90.11
346.917	-1736.68
347.131	1220.59
347.345	-886.77
347.559	-1003.5
347.773	1632.23
347.986	-49.15
348.2	2953.17
348.414	-1218.54
348.628	-786.42
348.842	-1005.55
349.056	-1216.49
349.269	489.46
349.483	1304.56
349.697	1470.44
349.911	1234.93
350.125	-929.78
350.338	309.24
350.552	839.67
350.766	-604.15
350.979	-1601.51
351.193	-516.09
351.407	5201.84
351.621	-233.47
351.834	-1415.15
352.048	2543.58
352.262	-307.2
352.475	3217.36
352.689	1136.62
352.902	1499.11
353.116	184.32
353.33	-1419.24
353.543	-1165.29
353.757	544.76
353.971	174.08
354.184	321.53
354.398	-505.85
354.611	743.41
354.825	2895.83
355.038	1116.14
355.252	-159.74
355.465	-520.18
355.679	-1837.03
355.892	860.15
356.106	1402.86
356.319	7534.48
356.533	-550.9
356.746	-169.98
356.96	-714.74
357.173	-1431.53
357.386	1382.38
357.6	-772.08
357.813	-1093.62
358.027	-1945.57
358.24	-649.21
358.453	2662.36
358.667	-1284.08
358.88	1136.62
359.094	-1015.79
359.307	372.73
359.52	-389.11
359.733	2183.13
359.947	-2289.63
360.16	1216.49
360.373	1617.9
360.587	-1249.26
360.8	-688.12
361.013	-399.35
361.226	-868.34
361.44	2498.52
361.653	1601.51
361.866	-966.64
362.079	-2187.23
362.292	253.95
362.506	3375.05
362.719	688.12
362.932	3039.19
363.145	65.53
363.358	-897.01
363.571	-1296.36
363.785	-221.18
363.998	1347.56
364.211	1886.18
364.424	-1380.33
364.637	1230.83
364.85	-511.99
365.063	2105.31
365.276	167.93
365.489	-1400.81
365.702	-327.68
365.915	350.2
366.128	-475.13
366.341	1978.34
366.554	3418.06
366.767	-864.24
366.98	-61.44
367.193	976.88
367.406	-1394.67
367.619	3839.94
367.832	2119.65
368.045	274.43
368.258	544.76
368.471	925.68
368.684	-2277.34
368.896	-1771.49
369.109	16.38
369.322	-1095.66
369.535	-180.22
369.748	-1497.07
369.961	-759.8
370.173	-2772.95
370.386	-2590.68
370.599	2686.94
370.812	-413.69
371.025	-868.34
371.237	163.84
371.45	247.8
371.663	788.47
371.876	-667.64
372.088	4773.82
372.301	-817.14
372.514	-1554.41
372.726	567.29
372.939	-489.46
373.152	-538.62
373.364	1064.94
373.577	3461.07
373.79	-466.94
374.002	-983.02
374.215	-2891.73
374.428	-1796.07
374.64	1693.67
374.853	-1030.13
375.065	-561.14
375.278	3508.17
375.491	71.68
375.703	1513.45
375.916	-2041.82
376.128	-667.64
376.341	-1581.03
376.553	831.48
376.766	-1495.02
376.978	-1732.58
377.191	958.45
377.403	-1701.86
377.616	3033.04
377.828	3960.77
378.04	-1279.98
378.253	-561.14
378.465	413.69
378.678	1222.64
378.89	-1216.49
379.103	-712.69
379.315	186.37
379.527	-1691.62
379.74	-561.14
379.952	-227.32
380.164	-1316.84
380.377	2043.87
380.589	112.64
380.801	-6.14
381.014	1656.81
381.226	956.4
381.438	-16.38
381.65	-1304.56
381.863	-106.49
382.075	-1040.37
382.287	-2324.44
382.499	-972.79
382.712	-126.97
382.924	-38.91
383.136	-856.05
383.348	-3295.18
383.56	-38.91
383.772	-972.79
383.985	124.93
384.197	1486.83
384.409	-526.33
384.621	585.72
384.833	22.53
385.045	118.78
385.257	-1361.9
385.469	-643.06
385.681	24.58
385.893	-206.84
386.105	-1099.76
386.318	-2555.86
386.53	-370.68
386.742	-3282.89
386.954	-2230.24
387.166	2846.68
387.378	112.64
387.589	86.01
387.801	-3092.43
388.013	-1388.52
388.225	-1183.73
388.437	-2160.61
388.649	-1961.95
388.861	2496.47
389.073	1148.91
389.285	-612.34
389.497	802.8
389.709	1273.84
389.92	-1153.01
390.132	-989.17
390.344	-745.46
390.556	-696.31
390.768	342.01
390.98	-983.02
391.191	1832.93
391.403	780.28
391.615	284.67
391.827	-1224.69
392.038	-835.57
392.25	-276.48
392.462	-2191.33
392.674	-1986.53
392.885	-1462.25
393.097	-2398.17
393.309	-835.57
393.52	1124.33
393.732	-1660.9
393.944	669.69
394.155	309.24
394.367	-1423.34
394.579	704.5
394.79	-1134.57
395.002	-309.24
395.213	-2713.56
395.425	-276.48
395.637	-1189.87
395.848	-2340.83
396.06	333.82
396.271	204.8
396.483	-1116.14
396.694	-403.45
396.906	-538.62
397.117	1251.31
397.329	1425.39
397.54	-720.89
397.752	-1884.13
397.963	-1089.52
398.175	286.72
398.386	1212.4
398.598	-806.9
398.809	-2160.61
399.02	772.08
399.232	825.33
399.443	26.62
399.655	-925.68
399.866	-1052.66
400.077	-354.3
400.289	1501.16
400.5	-2.05
400.711	837.62
400.923	-1609.7
401.134	-1185.77
401.345	-1851.36
401.556	3301.33
401.768	-1023.98
401.979	-1089.52
402.19	788.47
402.401	-456.7
402.613	36.86
402.824	-780.28
403.035	-2639.83
403.246	-1724.39
403.457	376.83
403.669	219.13
403.88	-1740.77
404.091	-2086.88
404.302	-1353.71
404.513	-581.62
404.724	-937.97
404.935	-866.29
405.146	1107.95
405.358	-1837.03
405.569	-1626.09
405.78	-2074.59
405.991	-974.83
406.202	104.45
406.413	-264.19
406.624	-1515.5
406.835	-387.07
407.046	2811.86
407.257	-94.21
407.468	1193.97
407.679	-405.5
407.89	1834.98
408.101	1959.91
408.312	-405.5
408.522	-1964
408.733	413.69
408.944	280.57
409.155	-555
409.366	929.78
409.577	-1826.79
409.788	-489.46
409.999	210.94
410.209	-634.87
410.42	155.65
410.631	-1877.99
410.842	-114.69
411.053	5191.6
411.264	1142.77
411.474	-1202.16
411.685	-73.73
411.896	-1433.58
412.107	-2068.45
412.317	-1042.42
412.528	1804.26
412.739	-2121.7
412.949	-1329.13
413.16	73.73
413.371	2017.25
413.581	1075.18
413.792	-675.83
414.003	3667.91
414.213	1791.97
414.424	-2082.78
414.635	-620.53
414.845	-1255.4
415.056	1017.84
415.266	-1640.42
415.477	-2441.18
415.687	847.86
415.898	1075.18
416.109	-1601.51
416.319	356.35
416.53	-2768.85
416.74	321.53
416.951	-1474.54
417.161	43.01
417.372	135.17
417.582	569.34
417.792	1464.3
418.003	2381.79
418.213	-825.33
418.424	507.9
418.634	-1660.9
418.844	1126.38
419.055	1886.18
419.265	-1279.98
419.476	522.23
419.686	-958.45
419.896	-16.38
420.107	-1134.57
420.317	-663.54
420.527	63.49
420.738	-407.55
420.948	950.26
421.158	1204.21
421.368	-677.88
421.579	-264.19
421.789	-1279.98
421.999	-3852.23
422.209	-501.75
422.419	-540.66
422.63	-86.01
422.84	-499.7
423.05	-1292.27
423.26	-1175.53
423.47	-155.65
423.681	-2047.97
423.891	729.08
424.101	1644.52
424.311	-915.44
424.521	-266.24
424.731	-727.03
424.941	-595.96
425.151	413.69
425.361	-1810.4
425.571	-2691.03
425.781	4063.17
425.991	761.84
426.201	1519.59
426.411	266.24
426.621	-1437.67
426.831	-2004.96
427.041	200.7
427.251	-315.39
427.461	1267.69
427.671	1093.62
427.881	-782.32
428.091	-139.26
428.301	2506.71
428.511	-92.16
428.721	-3203.02
428.93	-499.7
429.14	-1198.06
429.35	348.15
429.56	-1077.23
429.77	-499.7
429.98	-1361.9
430.189	-1200.11
430.399	2781.14
430.609	1378.28
430.819	126.97
431.029	-1386.47
431.238	-913.39
431.448	-792.56
431.658	-2650.07
431.867	-784.37
432.077	325.63
432.287	-1230.83
432.497	-1044.46
432.706	-47.1
432.916	-397.31
433.125	-3012.56
433.335	-1261.55
433.545	1142.77
433.754	3737.54
433.964	-1200.11
434.174	-851.95
434.383	2115.55
434.593	-1296.36
434.802	839.67
435.012	-1400.81
435.221	360.44
435.431	-763.89
435.64	-1208.3
435.85	-1036.27
436.059	231.42
436.269	878.58
436.478	-966.64
436.688	-2242.53
436.897	-886.77
437.107	-2336.73
437.316	27328.09
437.525	94.21
437.735	118.78
437.944	-83.97
438.154	2375.64
438.363	262.14
438.572	2961.36
438.782	339.96
438.991	-835.57
439.2	-290.81
439.41	-931.83
439.619	-1163.25
439.828	251.9
440.038	90.11
440.247	2031.59
440.456	-1511.4
440.665	657.4
440.875	1017.84
441.084	372.73
441.293	-1753.06
441.502	-1279.98
441.711	-1118.19
441.92	350.2
442.13	-311.29
442.339	-1126.38
442.548	-706.55
442.757	1982.43
442.966	-3012.56
443.175	-1142.77
443.384	1388.52
443.593	1476.59
443.803	-1990.63
444.012	-217.08
444.221	-475.13
444.43	4716.47
444.639	448.51
444.848	2138.08
445.057	-1286.12
445.266	-1300.46
445.475	-2465.75
445.684	-1308.65
445.893	2418.65
446.102	276.48
446.311	-3106.77
446.52	-24.58
446.728	3008.47
446.937	-3147.73
447.146	-3891.14
447.355	370.68
447.564	-331.77
447.773	1593.32
447.982	1298.41
448.191	667.64
448.399	-1361.9
448.608	-876.53
448.817	-784.37
449.026	983.02
449.235	-1673.19
449.443	1089.52
449.652	-679.93
449.861	-954.35
450.07	194.56
450.278	1785.83
450.487	-2965.46
450.696	-65.53
450.904	-1353.71
451.113	-735.22
451.322	626.68
451.53	-606.2
451.739	3010.51
451.948	-1056.75
452.156	102.4
452.365	4198.34
452.574	786.42
452.782	360.44
452.991	-487.42
453.199	692.21
453.408	266.24
453.616	-1429.48
453.825	1271.79
454.033	1404.91
454.242	3450.83
454.45	3622.86
454.659	421.88
454.867	15228.7
455.076	-989.17
455.284	-972.79
455.493	-1757.16
455.701	-1066.99
455.91	3033.04
456.118	-946.16
456.326	-2097.12
456.535	2619.35
456.743	1173.49
456.951	-2158.56
457.16	1122.29
457.368	735.22
457.576	-1636.33
457.785	2473.95
457.993	-141.31
458.201	-1236.97
458.41	722.93
458.618	-976.88
458.826	-167.93
459.034	-2824.15
459.243	-1384.43
459.451	53.25
459.659	-104.45
459.867	-610.29
460.075	-835.57
460.284	-28.67
460.492	-2213.85
460.7	-391.16
460.908	-806.9
461.116	-2668.5
461.324	-1257.45
461.532	-2394.08
461.741	-1904.61
461.949	-851.95
462.157	1925.09
462.365	-71.68
462.573	-77.82
462.781	509.94
462.989	-874.48
463.197	-1503.21
463.405	-2232.29
463.613	-49.15
463.821	-2451.42
464.029	55.3
464.237	-1177.58
464.445	-749.56
464.653	899.06
464.861	-364.54
465.069	1437.67
465.276	4886.45
465.484	-706.55
465.692	-692.21
465.9	-937.97
466.108	-567.29
466.316	976.88
466.524	-829.43
466.731	-499.7
466.939	1834.98
467.147	-36.86
467.355	-157.69
467.563	1417.19
467.77	653.3
467.978	-2664.41
468.186	514.04
468.393	2054.11
468.601	-385.02
468.809	-1890.28
469.017	-749.56
469.224	-1910.75
469.432	946.16
469.64	-1394.67
469.847	-2013.15
470.055	587.77
470.263	-1101.81
470.47	-1163.25
470.678	1380.33
470.885	-253.95
471.093	2633.69
471.3	772.08
471.508	-1509.35
471.716	-485.37
471.923	256
472.131	405.5
472.338	-1343.47
472.546	-745.46
472.753	3047.38
472.961	-1445.87
473.168	-135.17
473.375	-624.63
473.583	1110
473.79	-169.98
473.998	268.28
474.205	303.1
474.412	2007.01
474.62	-860.15
474.827	-1523.69
475.035	1511.4
475.242	-798.71
475.449	-1468.39
475.657	4202.43
475.864	3250.13
476.071	65.53
476.278	-872.43
476.486	-518.14
476.693	157.69
476.9	321.53
477.107	362.49
477.315	-1110
477.522	129.02
477.729	1474.54
477.936	-538.62
478.143	-1581.03
478.351	1413.1
478.558	-1341.42
478.765	-589.81
478.972	-208.89
479.179	565.24
479.386	702.45
479.593	1069.04
479.8	903.15
480.007	-1624.04
480.215	-237.56
480.422	1026.03
480.629	-2242.53
480.836	1193.97
481.043	3080.14
481.25	-649.21
481.457	-1474.54
481.664	-704.5
481.871	798.71
482.078	-1341.42
482.284	-1398.76
482.491	2127.84
482.698	1732.58
482.905	-1105.9
483.112	-2222.05
483.319	239.61
483.526	28.67
483.733	2381.79
483.94	-2648.02
484.146	-1648.61
484.353	100.35
484.56	-563.19
484.767	-3461.07
484.974	2289.63
485.18	1677.29
485.387	-501.75
485.594	-1159.15
485.801	1875.94
486.007	321.53
486.214	-985.07
486.421	-1906.66
486.627	-251.9
486.834	919.54
487.041	534.52
487.247	-1304.56
487.454	-1357.8
487.661	573.43
487.867	518.14
488.074	-1679.33
488.281	1122.29
488.487	-188.41
488.694	-694.26
488.9	-421.88
489.107	-1052.66
489.313	-835.57
489.52	-591.86
489.726	-1656.81
489.933	3080.14
490.139	3014.61
490.346	-454.65
490.552	387.07
490.759	-303.1
490.965	145.41
491.172	6578.08
491.378	-358.39
491.584	98.3
491.791	1644.52
491.997	-59.39
492.204	-446.46
492.41	3168.21
492.616	-1777.64
492.823	-1325.04
493.029	-1097.71
493.235	2355.16
493.442	-303.1
493.648	-817.14
493.854	-694.26
494.06	4814.77
494.267	745.46
494.473	-782.32
494.679	-1343.47
494.885	313.34
495.091	3313.61
495.298	931.83
495.504	-2394.08
495.71	-176.13
495.916	-1853.41
496.122	2717.65
496.328	643.06
496.535	696.31
496.741	-419.83
496.947	776.18
497.153	-178.17
497.359	614.39
497.565	561.14
497.771	1654.76
497.977	-262.14
498.183	-718.84
498.389	958.45
498.595	-1644.52
498.801	542.71
499.007	884.72
499.213	-391.16
499.419	-552.95
499.625	-4.1
499.831	3319.76
500.037	-544.76
500.243	-1470.44
500.448	-563.19
500.654	1157.1
500.86	2131.94
501.066	-626.68
501.272	2467.8
501.478	-1920.99
501.684	-634.87
501.889	-1859.56
502.095	-1429.48
502.301	-313.34
502.507	669.69
502.712	-602.1
502.918	-1341.42
503.124	-987.12
503.33	964.59
503.535	-788.47
503.741	223.23
503.947	-192.51
504.152	-299
504.358	-2146.27
504.564	-458.74
504.769	491.51
504.975	4562.87
505.181	-94.21
505.386	-1759.21
505.592	-653.3
505.797	686.07
506.003	-2488.28
506.208	1998.82
506.414	-432.12
506.619	18.43
506.825	630.77
507.03	-1961.95
507.236	-1066.99
507.441	258.04
507.647	-511.99
507.852	151.55
508.058	1339.37
508.263	1163.25
508.469	-430.07
508.674	-2166.75
508.879	-522.23
509.085	-71.68
509.29	-1441.77
509.495	-1302.51
509.701	-1056.75
509.906	911.35
510.111	-675.83
510.317	856.05
510.522	198.65
510.727	2248.67
510.933	-655.35
511.138	497.66
511.343	-737.27
511.548	557.05
511.754	-1517.54
511.959	2336.73
512.164	59.39
512.369	3536.84
512.574	3534.79
512.779	-1501.16
512.985	-530.42
513.19	1093.62
513.395	286.72
513.6	-966.64
513.805	-229.37
514.01	1992.67
514.215	-147.45
514.42	2830.29
514.625	-385.02
514.83	2582.49
515.035	-157.69
515.24	102.4
515.445	3096.53
515.65	1785.83
515.855	286.72
516.06	-315.39
516.265	651.25
516.47	1460.2
516.675	321.53
516.88	-2322.4
517.085	229.37
517.29	-520.18
517.495	440.31
517.7	1689.57
517.904	-176.13
518.109	608.25
518.314	-536.57
518.519	468.98
518.724	696.31
518.928	694.26
519.133	-501.75
519.338	241.66
519.543	466.94
519.747	1054.7
519.952	3076.05
520.157	6285.22
520.362	999.41
520.566	2752.47
520.771	-1720.29
520.976	1329.13
521.18	3770.31
521.385	-874.48
521.59	-944.11
521.794	411.64
521.999	2308.06
522.203	-954.35
522.408	-444.41
522.612	-958.45
522.817	794.61
523.022	2379.74
523.226	-200.7
523.431	-1069.04
523.635	219.13
523.84	2316.25
524.044	-792.56
524.249	1744.87
524.453	3067.86
524.657	208.89
524.862	7116.69
525.066	-808.95
525.271	-198.65
525.475	1478.63
525.679	-4.1
525.884	-1724.39
526.088	1437.67
526.292	2699.22
526.497	241.66
526.701	-735.22
526.905	-253.95
527.11	198.65
527.314	-270.33
527.518	3594.19
527.722	-874.48
527.927	1181.68
528.131	-2009.06
528.335	5646.25
528.539	1847.27
528.744	2869.2
528.948	-1601.51
529.152	-1193.97
529.356	2736.09
529.56	616.44
529.764	47.1
529.968	57.34
530.173	8112
530.377	6381.47
530.581	-1597.42
530.785	1757.16
530.989	-356.35
531.193	415.74
531.397	-1153.01
531.601	413.69
531.805	1789.92
532.009	1638.37
532.213	221.18
532.417	616.44
532.621	2211.81
532.825	3456.97
533.029	108.54
533.233	821.24
533.436	675.83
533.64	249.85
533.844	1759.21
534.048	-440.31
534.252	778.23
534.456	3540.94
534.66	2340.83
534.863	325.63
535.067	444.41
535.271	2543.58
535.475	-421.88
535.679	2195.42
535.882	3172.3
536.086	2033.63
536.29	2408.41
536.493	602.1
536.697	1613.8
536.901	1187.82
537.104	2220
537.308	1034.22
537.512	1558.5
537.715	4091.84
537.919	1988.58
538.123	2140.13
538.326	1497.07
538.53	2795.48
538.733	3448.78
538.937	2404.32
539.141	2125.79
539.344	3223.5
539.548	2289.63
539.751	4992.95
539.955	5789.61
540.158	7397.26
540.362	5339.05
540.565	3266.51
540.768	4665.27
540.972	11112.28
541.175	9258.87
541.379	6909.85
541.582	6447.01
541.785	8335.23
541.989	9957.22
542.192	5498.8
542.396	6770.58
542.599	8748.92
542.802	9183.09
543.005	7759.75
543.209	6711.19
543.412	8255.36
543.615	8105.86
543.819	8232.83
544.022	6596.51
544.225	8220.55
544.428	8019.85
544.631	10684.25
544.835	7448.46
545.038	6227.87
545.241	6823.83
545.444	9854.83
545.647	8306.56
545.85	7077.78
546.054	5799.85
546.257	4046.79
546.46	6864.79
546.663	6158.24
546.866	7004.05
547.069	6934.42
547.272	5339.05
547.475	6236.06
547.678	5486.51
547.881	4190.14
548.084	4628.41
548.287	5072.82
548.49	2635.74
548.693	4083.65
548.896	1837.03
549.099	4671.42
549.302	2797.53
549.505	2148.32
549.707	1822.69
549.91	4249.54
550.113	1992.67
550.316	1708.01
550.519	4358.08
550.722	4155.33
550.924	1908.71
551.127	3205.07
551.33	2250.72
551.533	1578.98
551.736	1216.49
551.938	1128.43
552.141	2820.05
552.344	708.6
552.546	3049.43
552.749	1822.69
552.952	1798.12
553.154	1851.36
553.357	1675.24
553.56	1673.19
553.762	7198.61
553.965	5640.11
554.168	1972.19
554.37	3850.18
554.573	2887.64
554.775	4364.22
554.978	3145.68
555.18	485.37
555.383	1236.97
555.585	5146.55
555.788	2768.85
555.99	1236.97
556.193	2027.49
556.395	3280.85
556.598	1138.67
556.8	1656.81
557.003	2095.07
557.205	5844.9
557.407	1427.43
557.61	1939.43
557.812	2326.49
558.015	4360.13
558.217	1603.56
558.419	2414.56
558.622	3770.31
558.824	2297.82
559.026	847.86
559.228	1724.39
559.431	3420.11
559.633	3176.4
559.835	1843.17
560.037	3246.03
560.24	4814.77
560.442	4114.37
560.644	1464.3
560.846	3424.2
561.048	3545.03
561.25	4435.9
561.453	3043.28
561.655	2004.96
561.857	2664.41
562.059	2004.96
562.261	4882.36
562.463	3080.14
562.665	2555.87
562.867	3719.11
563.069	3837.89
563.271	4788.15
563.473	3549.13
563.675	3190.74
563.877	3207.12
564.079	2133.98
564.281	5265.33
564.483	3876.8
564.685	3125.2
564.887	2551.77
565.089	4603.83
565.291	4548.54
565.493	1839.08
565.694	5300.14
565.896	1802.21
566.098	4227.01
566.3	5291.95
566.502	2752.47
566.704	5724.07
566.905	471.03
567.107	1310.7
567.309	1247.21
567.511	4347.84
567.712	1388.52
567.914	2439.13
568.116	575.48
568.317	4716.47
568.519	3272.65
568.721	206.84
568.922	243.71
569.124	2586.58
569.326	5216.18
569.527	2410.46
569.729	1662.95
569.93	6723.48
570.132	2009.06
570.334	4128.7
570.535	913.39
570.737	1867.75
570.938	6213.54
571.14	2258.91
571.341	3629
571.543	7057.3
571.744	2787.29
571.946	4286.4
572.147	1638.37
572.348	5296.05
572.55	4218.82
572.751	5224.37
572.953	2215.9
573.154	4196.29
573.355	6703
573.557	9146.23
573.758	3770.31
573.959	3508.17
574.161	5234.61
574.362	5287.86
574.563	7507.85
574.765	5849
574.966	6295.46
575.167	2238.43
575.368	5359.53
575.569	3831.75
575.771	6154.15
575.972	3141.58
576.173	4210.62
576.374	5595.05
576.575	4999.09
576.776	1646.57
576.978	2541.53
577.179	3284.94
577.38	4224.96
577.581	2793.43
577.782	3413.96
577.983	5367.73
578.184	5695.4
578.385	3459.02
578.586	4294.59
578.787	2596.82
578.988	4167.62
579.189	1830.88
579.39	2750.42
579.591	3762.12
579.792	2887.64
579.993	4757.43
580.194	4796.34
580.395	6031.27
580.596	4040.64
580.796	5119.92
580.997	2901.97
581.198	3678.15
581.399	5654.44
581.6	6227.87
581.801	2951.12
582.001	6637.47
582.202	2322.4
582.403	1431.53
582.604	7632.78
582.804	3696.58
583.005	4087.75
583.206	858.1
583.407	5357.49
583.607	3190.74
583.808	2775
584.009	4915.12
584.209	4591.55
584.41	1679.33
584.61	3381.2
584.811	3114.96
585.012	2607.06
585.212	1880.04
585.413	3346.38
585.613	3315.66
585.814	2195.42
586.014	4988.85
586.215	2551.77
586.415	3366.86
586.616	2054.11
586.816	2621.4
587.017	4786.1
587.217	1769.45
587.418	6184.87
587.618	2707.41
587.819	2494.43
588.019	1165.29
588.219	643.06
588.42	2961.36
588.62	1030.13
588.82	1032.18
589.021	1456.11
589.221	3354.57
589.421	1732.58
589.622	4069.31
589.822	1302.51
590.022	5461.93
590.222	3487.69
590.423	1916.9
590.623	1013.74
590.823	2975.7
591.023	2850.77
591.223	757.75
591.423	5810.09
591.624	2719.7
591.824	2355.16
592.024	1312.75
592.224	1970.15
592.424	5298.1
592.624	2453.47
592.824	2815.96
593.024	2009.06
593.224	5087.15
593.424	4612.03
593.624	2498.52
593.824	2322.4
594.024	2916.31
594.224	1054.7
594.424	2666.46
594.624	387.07
594.824	1826.79
595.024	1337.32
595.224	2412.51
595.424	901.11
595.624	915.44
595.824	1193.97
596.023	3827.65
596.223	3854.28
596.423	1511.4
596.623	2879.44
596.823	-305.15
597.023	-632.82
597.222	6236.06
597.422	835.57
597.622	-155.65
597.822	1056.75
598.021	2265.05
598.221	770.04
598.421	-681.97
598.62	1490.92
598.82	550.9
599.02	4706.23
599.219	4319.17
599.419	2435.03
599.618	518.14
599.818	2543.58
600.018	-612.34
600.217	864.24
600.417	4108.23
600.616	1411.05
600.816	1812.45
601.015	1931.23
601.215	1036.27
601.414	708.6
601.614	724.98
601.813	-561.14
602.013	1968.1
602.212	1320.94
602.412	350.2
602.611	2432.99
602.81	2037.73
603.01	3162.06
603.209	1421.29
603.408	-1175.53
603.608	2662.36
603.807	1200.11
604.006	5752.74
604.206	-36.86
604.405	1386.47
604.604	1890.28
604.803	1531.88
605.003	307.2
605.202	104.45
605.401	903.15
605.6	2312.16
605.8	342.01
605.999	399.35
606.198	1939.43
606.397	2039.78
606.596	878.58
606.795	2682.84
606.994	3418.06
607.193	847.86
607.393	3827.65
607.592	3829.7
607.791	1511.4
607.99	3870.66
608.189	3993.54
608.388	4648.89
608.587	4026.31
608.786	3071.95
608.985	624.63
609.184	2037.73
609.382	3473.36
609.581	2797.53
609.78	4857.78
609.979	4272.06
610.178	2885.59
610.377	2676.7
610.576	632.82
610.775	3221.45
610.973	3276.75
611.172	3930.05
611.371	2830.29
611.57	2043.87
611.769	5085.11
611.967	1458.15
612.166	4704.18
612.365	2758.61
612.564	2975.7
612.762	3315.66
612.961	3342.29
613.16	2170.85
613.358	3008.47
613.557	83.97
613.756	2889.68
613.954	4300.73
614.153	1230.83
614.351	1347.56
614.55	288.76
614.749	3774.41
614.947	1871.84
615.146	767.99
615.344	2568.15
615.543	24.58
615.741	2322.4
615.94	2953.17
616.138	780.28
616.337	2942.93
616.535	1206.25
616.733	75.77
616.932	1501.16
617.13	3715.02
617.329	5093.3
617.527	-899.06
617.725	-1490.92
617.924	-880.63
618.122	428.03
618.32	-835.57
618.519	-1345.52
618.717	2342.88
618.915	2211.81
619.114	1126.38
619.312	18.43
619.51	319.48
619.708	2191.33
619.906	-481.27
620.105	-524.28
620.303	-335.87
620.501	3856.33
620.699	-1607.66
620.897	1044.46
621.095	1873.89
621.293	-976.88
621.492	1851.36
621.69	-45.06
621.888	976.88
622.086	3153.87
622.284	1298.41
622.482	430.07
622.68	802.8
622.878	372.73
623.076	57.34
623.274	6.14
623.472	401.4
623.67	1411.05
623.868	-2308.06
624.065	866.29
624.263	495.61
624.461	872.43
624.659	-698.36
624.857	3207.12
625.055	2529.24
625.253	-256
625.45	-155.65
625.648	126.97
625.846	303.1
626.044	196.61
626.242	436.22
626.439	1875.94
626.637	774.13
626.835	-49.15
627.032	1988.58
627.23	-1497.07
627.428	3418.06
627.626	1253.36
627.823	598.01
628.021	2615.26
628.218	2000.87
628.416	1507.31
628.614	-1091.57
628.811	-1595.37
629.009	-595.96
629.206	-206.84
629.404	-1073.14
629.601	280.57
629.799	-1812.45
629.996	3231.69
630.194	1132.53
630.391	1105.9
630.589	-475.13
630.786	1947.62
630.984	366.59
631.181	-2072.54
631.378	-647.16
631.576	1998.82
631.773	-2007.01
631.97	-1251.31
632.168	-1621.99
632.365	194.56
632.562	276.48
632.76	-929.78
632.957	307.2
633.154	159.74
633.352	614.39
633.549	-667.64
633.746	2136.03
633.943	878.58
634.14	-509.94
634.338	2230.24
634.535	-260.09
634.732	-217.08
634.929	2865.11
635.126	839.67
635.323	49.15
635.52	2402.27
635.717	645.11
635.915	-292.86
636.112	16.38
636.309	-1738.73
636.506	-536.57
636.703	-2369.5
636.9	-421.88
637.097	5056.43
637.294	407.55
637.491	-940.02
637.688	2271.2
637.884	-1052.66
638.081	-548.86
638.278	-186.37
638.475	-186.37
638.672	-509.94
638.869	-806.9
639.066	5713.83
639.263	827.38
639.459	737.27
639.656	-2252.77
639.853	-1705.96
640.05	4542.39
640.246	2254.81
640.443	81.92
640.64	-2904.02
640.837	311.29
641.033	-1683.43
641.23	-92.16
641.427	-206.84
641.623	684.02
641.82	-546.81
642.017	-1232.88
642.213	-305.15
642.41	-432.12
642.606	1218.54
642.803	1458.15
643	325.63
643.196	-1282.03
643.393	2217.95
643.589	237.56
643.786	-1284.08
643.982	4372.41
644.179	1431.53
644.375	-890.87
644.571	-524.28
644.768	-1419.24
644.964	-260.09
645.161	-292.86
645.357	2545.63
645.553	593.91
645.75	2058.21
645.946	116.73
646.143	-157.69
646.339	376.83
646.535	466.94
646.731	1447.91
646.928	6.14
647.124	-1771.49
647.32	2224.09
647.516	1935.33
647.713	-1372.14
647.909	-47.1
648.105	-577.53
648.301	-2736.09
648.497	333.82
648.693	-442.36
648.89	-481.27
649.086	-229.37
649.282	-929.78
649.478	-579.58
649.674	210.94
649.87	1982.43
650.066	1398.76
650.262	-1087.47
650.458	1593.32
650.654	-1411.05
650.85	225.28
651.046	-493.56
651.242	-94.21
651.438	262.14
651.634	-1740.77
651.83	-884.72
652.026	536.57
652.222	-524.28
652.417	-184.32
652.613	1214.45
652.809	-1562.6
653.005	-860.15
653.201	2396.12
653.397	-1263.6
653.592	-161.79
653.788	-1212.4
653.984	1642.47
654.18	4700.09
654.375	-765.94
654.571	-118.78
654.767	-337.91
654.962	-983.02
655.158	-2478.04
655.354	-675.83
655.549	1400.81
655.745	1130.48
655.941	3581.9
656.136	-915.44
656.332	-1386.47
656.527	71.68
656.723	1476.59
656.918	-1947.62
657.114	-618.49
657.309	-141.31
657.505	911.35
657.7	1277.93
657.896	-1155.05
658.091	-1132.53
658.287	-774.13
658.482	-2179.04
658.678	-1110
658.873	262.14
659.068	3446.73
659.264	-509.94
659.459	36707.79
659.654	655.35
659.85	2351.07
660.045	-1564.65
660.24	2064.35
660.436	5408.69
660.631	-282.62
660.826	2185.18
661.021	274.43
661.217	2439.13
661.412	-753.65
661.607	-2129.89
661.802	-446.46
661.997	-495.61
662.192	636.92
662.388	-2691.03
662.583	-503.8
662.778	432.12
662.973	-1949.67
663.168	-2582.49
663.363	-1159.15
663.558	3989.44
663.753	1359.85
663.948	-2105.31
664.143	-1671.14
664.338	190.46
664.533	1038.32
664.728	-671.73
664.923	-1150.96
665.118	133.12
665.313	-954.35
665.508	1222.64
665.703	1144.81
665.897	1222.64
666.092	550.9
666.287	-81.92
666.482	-714.74
666.677	1974.24
666.872	1566.7
667.066	-856.05
667.261	-1157.1
667.456	47.1
667.651	1447.91
667.845	1908.71
668.04	454.65
668.235	-1527.78
668.429	1212.4
668.624	-43.01
668.819	-669.69
669.013	-1603.56
669.208	733.17
669.402	-1599.46
669.597	90.11
669.792	-909.3
669.986	2856.92
670.181	-2176.99
670.375	382.97
670.57	-1777.64
670.764	-1028.08
670.959	-495.61
671.153	-92.16
671.348	-356.35
671.542	2475.99
671.737	-2093.02
671.931	-2602.97
672.125	317.44
672.32	972.79
672.514	1318.89
672.709	-1517.54
672.903	30.72
673.097	-636.92
673.291	-1247.21
673.486	1458.15
673.68	284.67
673.874	-980.98
674.069	-1077.23
674.263	671.73
674.457	1431.53
674.651	774.13
674.845	-530.42
675.04	3547.08
675.234	-1181.68
675.428	-178.17
675.622	-1363.95
675.816	-1658.85
676.01	-802.8
676.204	-194.56
676.398	251.9
676.592	-757.75
676.787	-716.79
676.981	65.53
677.175	36.86
677.369	-3387.34
677.563	77.82
677.757	-204.8
677.95	-1366
678.144	-2721.75
678.338	-968.69
678.532	770.04
678.726	-2392.03
678.92	3217.36
679.114	163.84
679.308	102.4
679.502	-4054.98
679.695	-1923.04
679.889	-507.9
680.083	-2699.22
680.277	-2459.61
680.471	-471.03
680.664	-1382.38
680.858	387.07
681.052	-202.75
681.245	-1417.19
681.439	610.29
681.633	-860.15
681.826	-344.06
682.02	-835.57
682.214	755.7
682.407	-1355.76
682.601	-667.64
682.795	-479.22
682.988	-344.06
683.182	-1048.56
683.375	-555
683.569	-780.28
683.762	645.11
683.956	2064.35
684.149	1740.77
684.343	1914.85
684.536	-1337.32
684.73	229.37
684.923	-2351.07
685.116	-1925.09
685.31	2074.59
685.503	724.98
685.696	-219.13
685.89	1130.48
686.083	-1490.92
686.276	-1001.46
686.47	278.52
686.663	-579.58
686.856	-245.76
687.05	1310.7
687.243	-636.92
687.436	1413.1
687.629	1671.14
687.822	626.68
688.016	-858.1
688.209	-1114.1
688.402	448.51
688.595	-96.25
688.788	-2154.46
688.981	-1646.57
689.174	2697.17
689.367	120.83
689.561	-729.08
689.754	-2516.95
689.947	-528.38
690.14	71.68
690.333	-3317.71
690.526	-765.94
690.719	1460.2
690.912	1910.75
691.104	262.14
691.297	-227.32
691.49	151.55
691.683	-847.86
691.876	-3022.8
692.069	2818.01
692.262	-194.56
692.455	368.63
692.647	-288.76
692.84	-1570.79
693.033	473.08
693.226	518.14
693.419	-1517.54
693.611	-813.04
693.804	139.26
693.997	606.2
694.189	-378.87
694.382	-1343.47
694.575	3022.8
694.767	-172.03
694.96	-1417.19
695.153	-178.17
695.345	212.99
695.538	1812.45
695.731	184.32
695.923	-651.25
696.116	342.01
696.308	1630.18
696.501	51.2
696.693	2142.18
696.886	-753.65
697.078	-2039.78
697.271	749.56
697.463	878.58
697.655	-180.22
697.848	212.99
698.04	-1087.47
698.233	-2240.48
698.425	-507.9
698.617	1282.03
698.81	-1261.55
699.002	-968.69
699.194	1771.49
699.387	770.04
699.579	-1118.19
699.771	-1726.44
699.963	-3098.58
700.156	-1953.76
700.348	1163.25
700.54	161.79
700.732	-950.26
700.924	-669.69
701.117	-653.3
701.309	-1026.03
701.501	-2179.04
701.693	4179.9
701.885	-1052.66
702.077	1257.45
702.269	475.13
702.461	1697.77
702.653	227.32
702.845	-722.93
703.037	530.42
703.229	2037.73
703.421	-911.35
703.613	-1495.02
703.805	3395.53
703.997	454.65
704.189	1267.69
704.381	-911.35
704.573	3780.55
704.765	-765.94
704.957	1388.52
705.148	-94.21
705.34	-915.44
705.532	14.34
705.724	-1327.08
705.916	-2013.15
706.107	1720.29
706.299	395.26
706.491	2000.87
706.682	1497.07
706.874	-643.06
707.066	-391.16
707.258	-1499.11
707.449	-485.37
707.641	5754.79
707.832	-10.24
708.024	-790.52
708.216	-368.63
708.407	860.15
708.599	-464.89
708.79	1857.51
708.982	-1509.35
709.173	-452.6
709.365	-958.45
709.556	-165.89
709.748	-423.93
709.939	305.15
710.131	632.82
710.322	-2213.85
710.514	2582.49
710.705	-540.66
710.896	720.89
711.088	421.88
711.279	765.94
711.47	1953.76
711.662	1187.82
711.853	-1290.22
712.044	-2461.66
712.236	372.73
712.427	40.96
712.618	-2498.52
712.809	-1167.34
713	-450.55
713.192	1486.83
713.383	-876.53
713.574	227.32
713.765	24.58
713.956	-913.39
714.147	2062.3
714.338	-1511.4
714.53	1757.16
714.721	2484.19
714.912	-1058.8
715.103	-2160.61
715.294	743.41
715.485	1519.59
715.676	-2306.01
715.867	-2762.71
716.058	-860.15
716.249	1400.81
716.44	-327.68
716.63	-1626.09
716.821	-143.36
717.012	1462.25
717.203	-1116.14
717.394	-774.13
717.585	-2340.83
717.776	-610.29
717.966	-1064.94
718.157	-1447.91
718.348	487.42
718.539	40.96
718.73	1159.15
718.92	2176.99
719.111	-905.2
719.302	520.18
719.492	-972.79
719.683	710.65
719.874	-1157.1
720.064	4054.98
720.255	-2105.31
720.446	-219.13
720.636	1587.18
720.827	1406.95
721.017	557.05
721.208	-632.82
721.398	-905.2
721.589	995.31
721.779	350.2
721.97	-3436.49
722.16	-1544.17
722.351	-2226.14
722.541	-958.45
722.732	1333.23
722.922	1030.13
723.112	1712.1
723.303	-1929.19
723.493	-1198.06
723.683	1138.67
723.874	2310.11
724.064	249.85
724.254	2093.02
724.445	-960.5
724.635	2336.73
724.825	-2871.25
725.015	-770.04
725.206	-708.6
725.396	1429.48
725.586	-1384.43
725.776	933.87
725.966	3715.02
726.157	1306.6
726.347	1974.24
726.537	-274.43
726.727	1970.15
726.917	-1439.72
727.107	-1036.27
727.297	-2826.2
727.487	1859.56
727.677	-1036.27
727.867	249.85
728.057	-385.02
728.247	978.93
728.437	905.2
728.627	-892.91
728.817	-720.89
729.007	432.12
729.197	581.62
729.387	-794.61
729.576	-299
729.766	1613.8
729.956	-454.65
730.146	-860.15
730.336	-1806.31
730.525	-360.44
730.715	-1263.6
730.905	8.19
731.095	-540.66
731.284	767.99
731.474	1769.45
731.664	-716.79
731.853	-2486.23
732.043	-1310.7
732.233	-1877.99
732.422	1294.32
732.612	-1425.39
732.802	524.28
732.991	106.49
733.181	-2869.2
733.37	-1538.02
733.56	-886.77
733.749	907.25
733.939	-2170.85
734.128	985.07
734.318	2682.84
734.507	-743.41
734.697	-2346.97
734.886	1388.52
735.076	-1552.36
735.265	1736.68
735.454	366.59
735.644	-1718.25
735.833	-1341.42
736.022	-122.88
736.212	-1064.94
736.401	-581.62
736.59	1105.9
736.779	-638.97
736.969	-2252.77
737.158	172.03
737.347	-1474.54
737.536	-202.75
737.726	-1458.15
737.915	1189.87
738.104	937.97
738.293	-821.24
738.482	98.3
738.671	-1388.52
738.86	-2488.28
739.049	970.74
739.238	-1320.94
739.427	-643.06
739.616	-1937.38
739.806	-1763.3
739.995	-2996.18
740.183	-1990.63
740.372	-59.39
740.561	-622.58
740.75	-3753.93
740.939	231.42
741.128	307.2
741.317	1085.42
741.506	-978.93
741.695	335.87
741.884	987.12
742.072	1648.61
742.261	-245.76
742.45	-507.9
742.639	563.19
742.828	423.93
743.016	-589.81
743.205	-1593.32
743.394	-1433.58
743.582	1595.37
743.771	139.26
743.96	806.9
744.148	43.01
744.337	61.44
744.526	559.1
744.714	-837.62
744.903	3848.13
745.091	-14.34
745.28	1961.95
745.468	1187.82
745.657	761.84
745.845	589.81
746.034	-462.84
746.222	141.31
746.411	710.65
746.599	1314.8
746.788	907.25
746.976	-581.62
747.165	178.17
747.353	911.35
747.541	4917.17
747.73	-1503.21
747.918	2326.49
748.106	1802.21
748.295	2598.87
748.483	1726.44
748.671	1105.9
748.859	1325.04
749.048	2908.12
749.236	827.38
749.424	575.48
749.612	3246.03
749.8	1064.94
749.989	1093.62
750.177	1810.4
750.365	2318.3
750.553	2531.29
750.741	-585.72
750.929	5570.47
751.117	1339.37
751.305	2117.6
751.493	1040.37
751.681	32.77
751.869	1363.95
752.057	2914.26
752.245	1019.89
752.433	3196.88
752.621	2047.97
752.809	3344.33
752.997	3090.38
753.185	2768.85
753.373	1867.75
753.56	1626.09
753.748	3020.75
753.936	2035.68
754.124	2775
754.312	1458.15
754.499	4632.51
754.687	3098.58
754.875	3663.82
755.063	1628.14
755.25	3801.03
755.438	4353.98
755.626	3493.83
755.813	1050.61
756.001	3637.19
756.189	1470.44
756.376	1828.84
756.564	2473.95
756.751	3456.97
756.939	1062.9
757.127	5087.15
757.314	2572.25
757.502	1001.46
757.689	4644.79
757.877	3837.89
758.064	4054.98
758.251	1736.68
758.439	3946.44
758.626	5261.23
758.814	2101.22
759.001	4583.35
759.188	4681.66
759.376	649.21
759.563	3887.04
759.75	4155.33
759.938	2361.31
760.125	2189.28
760.312	3008.47
760.5	2500.57
760.687	3829.7
760.874	2015.2
761.061	4005.83
761.248	368.63
761.436	6635.42
761.623	2531.29
761.81	3377.1
761.997	4095.94
762.184	2467.8
762.371	2314.2
762.558	2723.8
762.745	4837.3
762.932	3112.91
763.119	3545.03
763.306	3416.01
763.493	3223.5
763.68	3545.03
763.867	4685.75
764.054	1693.67
764.241	2471.9
764.428	4794.29
764.615	3018.71
764.802	2965.46
764.989	1980.39
765.176	3200.98
765.362	4321.21
765.549	2412.51
765.736	10608.48
765.923	4800.44
766.11	4622.27
766.296	3137.49
766.483	577.53
766.67	3334.09
766.857	4394.94
767.043	2019.3
767.23	3579.85
767.417	4868.02
767.603	3944.39
767.79	2834.39
767.976	5695.4
768.163	5148.59
768.35	4118.47
768.536	2828.24
768.723	2899.92
768.909	4956.08
769.096	5765.03
769.282	3096.53
769.469	2809.81
769.655	5715.88
769.842	3928
770.028	1759.21
770.214	3485.64
770.401	3663.82
770.587	2467.8
770.774	450.55
770.96	313.34
771.146	3821.51
771.333	4157.38
771.519	2766.81
771.705	3585.99
771.891	2152.42
772.078	8046.47
772.264	4607.93
772.45	2965.46
772.636	3547.08
772.822	2820.05
773.009	6725.53
773.195	4005.83
773.381	4063.17
773.567	4540.35
773.753	2549.72
773.939	1587.18
774.125	1519.59
774.311	3389.39
774.497	1894.37
774.683	2641.88
774.869	5105.59
775.055	6664.09
775.241	2332.64
775.427	4112.32
775.613	2447.32
775.799	5668.78
775.985	2340.83
776.171	3581.9
776.357	3751.88
776.543	3803.08
776.729	2797.53
776.914	3745.73
777.1	5058.48
777.286	7524.24
777.472	3379.15
777.657	3200.98
777.843	6406.05
778.029	6340.51
778.215	4349.89
778.4	3682.25
778.586	6977.43
778.772	5406.64
778.957	4751.29
779.143	2629.59
779.329	3864.52
779.514	2840.53
779.7	3889.09
779.885	1933.28
780.071	4528.06
780.256	4607.93
780.442	4016.07
780.627	2041.82
780.813	5334.96
780.998	6008.74
781.184	5068.72
781.369	2688.98
781.555	5363.63
781.74	3989.44
781.925	6221.73
782.111	3475.4
782.296	4276.16
782.481	4722.62
782.667	4257.73
782.852	5633.96
783.037	4071.36
783.223	3801.03
783.408	3928
783.593	5402.54
783.778	3606.47
783.963	4970.42
784.149	5586.86
784.334	4300.73
784.519	4458.43
784.704	3022.8
784.889	4810.68
785.074	3407.82
785.259	4280.25
785.444	7167.89
785.629	3143.63
785.814	2598.87
785.999	4302.78
786.184	7794.57
786.369	4155.33
786.554	2600.92
786.739	6184.87
786.924	5599.15
787.109	5386.16
787.294	6877.08
787.479	6850.46
787.664	5711.78
787.849	7262.1
788.034	7217.04
788.218	6631.32
788.403	6807.45
788.588	8646.52
788.773	8286.08
788.957	7307.15
789.142	10153.83
789.327	9512.81
789.512	9068.41
789.696	13172.53
789.881	14444.32
790.066	11061.08
790.25	14550.82
790.435	12433.22
790.619	14688.03
790.804	14401.32
790.989	14169.9
791.173	17299.19
791.358	15740.69
791.542	14120.74
791.727	14987.04
791.911	14989.08
792.096	14591.78
792.28	15636.24
792.465	15744.78
792.649	16072.46
792.833	17256.18
793.018	16160.52
793.202	17565.43
793.386	19754.71
793.571	18562.79
793.755	17913.58
793.939	16371.46
794.124	17151.74
794.308	17757.94
794.492	16703.23
794.676	16473.86
794.861	17207.03
795.045	18396.9
795.229	15056.67
795.413	17927.92
795.597	16420.61
795.781	16213.77
795.966	18960.09
796.15	15771.41
796.334	19574.49
796.518	17831.66
796.702	14212.9
796.886	15345.43
797.07	16369.41
797.254	14931.74
797.438	13092.66
797.622	12891.96
797.806	12834.62
797.99	13805.36
798.174	12762.94
798.358	13799.21
798.541	14032.68
798.725	14219.05
798.909	11591.5
799.093	12064.58
799.277	11523.92
799.461	12537.66
799.644	7788.43
799.828	10811.23
800.012	12963.64
800.196	10473.31
800.379	10475.36
800.563	8753.02
800.747	12162.89
800.93	9801.58
801.114	9664.36
801.298	8902.52
801.481	12152.65
801.665	11917.13
801.848	7884.68
802.032	9473.9
802.216	13111.1
802.399	9383.79
802.583	8245.12
802.766	7229.33
802.95	10041.19
803.133	11339.6
803.317	8046.47
803.5	7581.58
803.683	9336.69
803.867	7669.64
804.05	10542.94
804.233	11337.56
804.417	11816.78
804.6	8884.09
804.783	9807.72
804.967	10905.43
805.15	9854.83
805.333	9031.54
805.517	9588.59
805.7	7405.45
805.883	8824.7
806.066	10190.69
806.249	10698.59
806.432	7212.95
806.616	9189.24
806.799	7075.73
806.982	7718.79
807.165	9166.71
807.348	8970.1
807.531	7315.34
807.714	8118.15
807.897	9004.92
808.08	9502.58
808.263	10067.81
808.446	9867.11
808.629	8796.03
808.812	7821.19
808.995	8333.18
809.178	10608.48
809.361	9879.4
809.544	9836.39
809.726	11097.94
809.909	10278.76
810.092	9207.67
810.275	9734
810.458	11673.42
810.64	9981.8
810.823	9496.43
811.006	8431.49
811.189	10712.92
811.371	7438.22
811.554	8363.9
811.737	9695.08
811.919	9957.22
812.102	7700.36
812.285	6328.22
812.467	9226.1
812.65	7978.89
812.832	7128.98
813.015	9992.04
813.197	9647.98
813.38	9615.21
813.562	10671.97
813.745	6479.77
813.927	6317.98
814.11	9396.08
814.292	7821.19
814.475	6692.76
814.657	7479.18
814.839	8783.74
815.022	6746.01
815.204	11216.72
815.386	10461.02
815.569	9772.91
815.751	5756.84
815.933	9160.56
816.116	9383.79
816.298	9310.07
816.48	7722.89
816.662	7100.31
816.844	8406.91
817.027	8001.41
817.209	7010.2
817.391	6416.29
817.573	7376.78
817.755	7397.26
817.937	8130.44
818.119	6936.47
818.301	6690.71
818.483	7509.9
818.665	6844.31
818.847	8777.59
819.029	7999.37
819.211	5992.36
819.393	7815.05
819.575	10432.35
819.757	9627.5
819.939	8204.16
820.121	7522.19
820.303	8046.47
820.485	10624.86
820.666	10219.36
820.848	9967.46
821.03	7397.26
821.212	8963.96
821.394	5310.38
821.575	8361.86
821.757	9643.88
821.939	7978.89
822.121	7976.84
822.302	10461.02
822.484	8667
822.666	4964.28
822.847	6643.61
823.029	4372.41
823.21	8513.41
823.392	5001.14
823.573	6938.52
823.755	5484.46
823.937	5916.58
824.118	5699.5
824.3	11523.92
824.481	5822.38
824.662	6393.76
824.844	6789.02
825.025	8050.57
825.207	5113.78
825.388	6547.36
825.569	5326.77
825.751	6164.39
825.932	9613.17
826.113	4796.34
826.295	7798.66
826.476	7219.09
826.657	6707.1
826.839	6234.02
827.02	7315.34
827.201	9781.1
827.382	6418.33
827.563	7522.19
827.744	5758.89
827.926	6901.65
828.107	8490.88
828.288	4990.9
828.469	6692.76
828.65	7579.53
828.831	3882.95
829.012	6205.35
829.193	8302.47
829.374	5380.01
829.555	8449.92
829.736	11417.43
829.917	9107.32
830.098	7663.5
830.279	3809.22
830.46	5009.33
830.641	6102.95
830.822	6061.99
831.002	7950.21
831.183	4908.98
831.364	7225.23
831.545	7192.47
831.726	5914.53
831.906	5613.48
832.087	7018.39
832.268	6602.65
832.449	7821.19
832.629	3598.28
832.81	4857.78
832.991	4583.35
833.171	6195.11
833.352	6176.67
833.532	7411.6
833.713	4841.4
833.894	5300.14
834.074	3377.1
834.255	4763.58
834.435	4683.7
834.616	4583.35
834.796	5007.28
834.977	6449.05
835.157	8638.33
835.338	4192.19
835.518	3352.52
835.698	5304.24
835.879	4026.31
836.059	5480.36
836.239	5486.51
836.42	5199.79
836.6	5646.25
836.78	2887.64
836.961	4364.22
837.141	6610.84
837.321	3770.31
837.501	8617.85
837.682	4163.52
837.862	4800.44
838.042	10313.57
838.222	4235.2
838.402	4648.89
838.582	4747.19
838.763	5504.94
838.943	4401.08
839.123	7155.6
839.303	5103.54
839.483	6328.22
839.663	2260.96
839.843	15292.18
840.023	6829.98
840.203	6287.26
840.383	4440
840.563	4071.36
840.742	4845.49
840.922	3622.86
841.102	5865.38
841.282	4726.71
841.462	4730.81
841.642	4323.26
841.822	3205.07
842.001	2002.91
842.181	5232.56
842.361	5646.25
842.541	6467.49
842.72	5345.2
842.9	4286.4
843.08	5038
843.259	4231.1
843.439	4286.4
843.619	3655.62
843.798	4478.91
843.978	5683.11
844.157	3696.58
844.337	5560.24
844.517	3649.48
844.696	6565.79
844.876	5455.79
845.055	3262.41
845.235	5609.39
845.414	4554.68
845.593	2944.98
845.773	3610.57
845.952	1785.83
846.132	2297.82
846.311	2674.65
846.49	5052.34
846.67	5169.07
846.849	3416.01
847.028	2734.04
847.208	5400.49
847.387	3186.64
847.566	6709.15
847.745	2957.27
847.924	5103.54
848.104	5023.67
848.283	4931.51
848.462	5797.8
848.641	6111.14
848.82	4212.67
848.999	6637.47
849.178	3616.71
849.358	5662.63
849.537	4290.49
849.716	3461.07
849.895	2711.51
850.074	6102.95
850.253	6360.99
850.432	4716.47
850.61	3891.14
850.789	3547.08
850.968	6313.89
851.147	6137.76
851.326	3112.91
851.505	4208.58
851.684	4747.19
851.863	6150.05
852.041	4896.69
852.22	3971.01
852.399	3370.96
852.578	5318.57
852.756	2197.47
852.935	3600.33
853.114	5814.18
853.293	2584.54
853.471	7249.81
853.65	4673.46
853.828	3524.55
854.007	2930.64
854.186	4663.22
854.364	5941.16
854.543	4771.77
854.721	3504.07
854.9	5263.28
855.078	6504.35
855.257	3631.05
855.435	1290.22
855.614	4515.77
855.792	3606.47
855.971	3708.87
856.149	2021.35
856.327	4990.9
856.506	4337.6
856.684	3262.41
856.862	2973.65
857.041	858.1
857.219	5691.31
857.397	3020.75
857.576	3493.83
857.754	3231.69
857.932	5320.62
858.11	3788.74
858.288	3567.56
858.467	1837.03
858.645	2058.21
858.823	3467.21
859.001	4462.52
859.179	2551.77
859.357	3114.96
859.535	4964.28
859.713	5433.26
859.891	4890.55
860.069	7581.58
860.247	3203.02
860.425	1701.86
860.603	4663.22
860.781	5986.21
860.959	4442.04
861.137	1554.41
861.315	2742.23
861.493	4114.37
861.67	5531.56
861.848	5279.66
862.026	3184.59
862.204	3286.99
862.382	3301.33
862.559	3719.11
862.737	4800.44
862.915	5294
863.093	3162.06
863.27	5593
863.448	5457.84
863.626	4153.28
863.803	3672.01
863.981	2648.02
864.158	1411.05
864.336	3037.14
864.514	2404.32
864.691	1906.66
864.869	2820.05
865.046	2154.46
865.224	3835.85
865.401	5214.13
865.578	2793.43
865.756	5969.83
865.933	1306.6
866.111	5136.31
866.288	2303.96
866.465	3215.31
866.643	1951.71
866.82	2529.24
866.997	2684.89
867.175	3243.98
867.352	2781.14
867.529	806.9
867.706	2465.75
867.884	3604.43
868.061	3235.79
868.238	2779.09
868.415	2011.11
868.592	2381.79
868.77	2504.67
868.947	4673.46
869.124	2506.71
869.301	1306.6
869.478	3485.64
869.655	489.46
869.832	3377.1
870.009	6074.28
870.186	5851.05
870.363	3481.55
870.54	3295.18
870.717	2779.09
870.894	3235.79
871.071	4214.72
871.247	1492.97
871.424	2234.33
871.601	3037.14
871.778	2355.16
871.955	2996.18
872.132	3522.51
872.308	3250.13
872.485	3135.44
872.662	2408.41
872.839	4980.66
873.015	2101.22
873.192	3360.72
873.369	3012.56
873.545	2404.32
873.722	3209.17
873.898	2985.94
874.075	2498.52
874.252	3295.18
874.428	2836.44
874.605	2904.02
874.781	296.96
874.958	1826.79
875.134	3872.71
875.311	3409.87
875.487	3454.92
875.663	5304.24
875.84	3147.73
876.016	4036.55
876.193	3618.76
876.369	1929.19
876.545	1953.76
876.722	1918.95
876.898	2949.07
877.074	3370.96
877.25	4171.71
877.427	8460.16
877.603	2521.05
877.779	2596.82
877.955	2617.3
878.132	4849.59
878.308	4587.45
878.484	6094.76
878.66	1495.02
878.836	2965.46
879.012	2828.24
879.188	3295.18
879.364	2895.83
879.54	2293.72
879.716	1224.69
879.892	3135.44
880.068	4528.06
880.244	6223.78
880.42	1802.21
880.596	2482.14
880.772	2103.26
880.948	1834.98
881.124	3508.17
881.3	7616.4
881.475	2629.59
881.651	2691.03
881.827	2414.56
882.003	2428.89
882.178	673.78
882.354	2359.26
882.53	1757.16
882.706	2691.03
882.881	3225.55
883.057	1302.51
883.233	2695.13
883.408	4487.1
883.584	1869.8
883.759	1122.29
883.935	970.74
884.111	745.46
884.286	2166.75
884.462	552.95
884.637	1937.38
884.813	1054.7
884.988	2328.54
885.164	6027.17
885.339	1445.87
885.514	4399.04
885.69	1810.4
885.865	800.76
886.04	3254.22
886.216	1886.18
886.391	3440.59
886.566	2684.89
886.742	626.68
886.917	2789.33
887.092	4759.48
887.267	890.87
887.443	489.46
887.618	1476.59
887.793	1662.95
887.968	2924.5
888.143	991.22
888.318	2611.16
888.494	3723.21
888.669	2519
888.844	2615.26
889.019	2336.73
889.194	1992.67
889.369	1617.9
889.544	1853.41
889.719	3932.1
889.894	5031.86
890.069	3143.63
890.243	3555.27
890.418	1978.34
890.593	1558.5
890.768	2559.96
890.943	4552.63
891.118	2152.42
891.293	2611.16
891.467	1380.33
891.642	5689.26
891.817	1923.04
891.992	2654.17
892.166	1630.18
892.341	3950.53
892.516	2719.7
892.69	2744.28
892.865	493.56
893.04	2400.22
893.214	4065.22
893.389	3401.68
893.563	5640.11
893.738	5965.73
893.912	1783.78
894.087	2869.2
894.261	4059.07
894.436	1454.06
894.61	5377.97
894.785	2648.02
894.959	2623.45
895.134	4597.69
895.308	1202.16
895.482	3747.78
895.657	1421.29
895.831	1642.47
896.005	8456.06
896.18	1961.95
896.354	2602.97
896.528	663.54
896.702	2691.03
896.877	4521.91
897.051	899.06
897.225	2985.94
897.399	3004.37
897.573	1595.37
897.747	2957.27
897.922	2359.26
898.096	4304.83
898.27	1114.1
898.444	1665
898.618	2791.38
898.792	2543.58
898.966	2617.3
899.14	3330
899.314	2949.07
899.488	4282.3
899.662	2398.17
899.835	2408.41
900.009	2330.59
900.183	552.95
900.357	5547.95
900.531	1107.95
900.705	1118.19
900.878	104.45
901.052	950.26
901.226	2875.35
901.4	2193.37
901.573	759.8
901.747	104.45
901.921	1265.64
902.095	1611.75
902.268	3114.96
902.442	112.64
902.615	-804.85
902.789	2422.75
902.963	6807.45
903.136	638.97
903.31	3411.92
903.483	-417.79
903.657	2394.08
903.83	917.49
904.004	-1834.98
904.177	1081.33
904.35	57.34
904.524	-1583.08
904.697	571.38
904.871	911.35
905.044	1640.42
905.217	5326.77
905.391	3399.63
905.564	1306.6
905.737	798.71
905.91	34.82
906.084	-1882.08
906.257	782.32
906.43	-2050.02
906.603	315.39
906.776	-3047.38
906.949	-923.63
907.123	-1044.46
907.296	-292.86
907.469	2426.84
907.642	-514.04
907.815	1437.67
907.988	-133.12
908.161	-931.83
908.334	-1103.86
908.507	944.11
908.68	661.49
908.853	30.72
909.026	-710.65
909.199	-401.4
909.371	2349.02
909.544	1406.95
909.717	-26.62
909.89	-1253.36
910.063	-1241.07
910.236	-122.88
910.408	317.44
910.581	-2086.88
910.754	-2084.83
910.927	-2772.95
911.099	190.46
911.272	516.09
911.445	169.98
911.617	-542.71
911.79	1894.37
911.962	-344.06
912.135	-835.57
912.308	49.15
912.48	-1767.4
912.653	-1327.08
912.825	-819.19
912.998	-749.56
913.17	1153.01
913.343	1318.89
913.515	-602.1
913.687	-1673.19
913.86	104.45
914.032	1685.48
914.205	-495.61
914.377	-61.44
914.549	-2938.84
914.721	630.77
914.894	-1628.14
915.066	-440.31
915.238	-1529.83
915.41	2275.29
915.583	112.64
915.755	-1626.09
915.927	-22.53
916.099	1066.99
916.271	-688.12
916.443	-1886.18
916.616	-1992.67
916.788	7042.96
916.96	2379.74
917.132	-4009.92
917.304	-258.04
917.476	1716.2
917.648	331.77
917.82	-2918.36
917.992	1069.04
918.164	1066.99
918.335	409.59
918.507	1249.26
918.679	-2369.5
918.851	1599.46
919.023	-356.35
919.195	114.69
919.366	-2074.59
919.538	-2555.86
919.71	-1585.13
919.882	-1456.11
920.053	-1826.79
920.225	-1163.25
920.397	1574.89
920.568	-1800.16
920.74	-1181.68
920.912	-1073.14
921.083	-1472.49
921.255	-2025.44
921.426	-2107.36
921.598	-6.14
921.77	-849.91
921.941	-1933.28
922.113	-1767.4
922.284	1038.32
922.455	-1107.95
922.627	-2156.51
922.798	-2025.44
922.97	-1495.02
923.141	-1306.6
923.312	-3631.05
923.484	602.1
923.655	-2369.5
923.826	767.99
923.998	-1120.24
924.169	827.38
924.34	-1601.51
924.511	47.1
924.683	-391.16
924.854	-1392.62
925.025	-188.41
925.196	673.78
925.367	573.43
925.538	126.97
925.709	-313.34
925.881	382.97
926.052	-1314.8
926.223	-696.31
926.394	823.28
926.565	-931.83
926.736	-3725.26
926.907	-1671.14
927.078	-354.3
927.248	4038.59
927.419	663.54
927.59	-2899.92
927.761	870.39
927.932	847.86
928.103	-520.18
928.274	-1325.04
928.444	-423.93
928.615	-1179.63
928.786	-1304.56
928.957	-2027.49
929.127	-1140.72
929.298	96.25
929.469	-1253.36
929.639	-735.22
929.81	-266.24
929.981	-221.18
930.151	274.43
930.322	3045.33
930.492	624.63
930.663	3182.54
930.833	-1714.15
931.004	-292.86
931.174	438.27
931.345	36.86
931.515	-1830.88
931.686	-501.75
931.856	2107.36
932.027	-1931.23
932.197	942.07
932.367	-1773.54
932.538	1368.04
932.708	-1001.46
932.878	-40.96
933.048	-688.12
933.219	-1146.86
933.389	1794.02
933.559	-1613.8
933.729	-1785.83
933.9	331.77
934.07	-1923.04
934.24	-2387.93
934.41	55.3
934.58	-63.49
934.75	878.58
934.92	-2901.97
935.09	151.55
935.26	-1146.86
935.43	2220
935.6	-956.4
935.77	561.14
935.94	339.96
936.11	-1183.73
936.28	-1527.78
936.45	987.12
936.62	-71.68
936.79	462.84
936.96	-663.54
937.129	-821.24
937.299	40.96
937.469	12.29
937.639	43.01
937.808	-817.14
937.978	-2146.27
938.148	1363.95
938.317	-57.34
938.487	294.91
938.657	-1482.73
938.826	-1415.15
938.996	-667.64
939.166	-4100.03
939.335	-2062.3
939.505	75.77
939.674	-1290.22
939.844	-2052.06
940.013	120.83
940.183	-2119.65
940.352	-1972.19
940.522	-739.32
940.691	-1046.51
940.86	665.59
941.03	-911.35
941.199	-90.11
941.368	309.24
941.538	1306.6
941.707	-1724.39
941.876	-534.52
942.046	962.55
942.215	-108.54
942.384	-1976.29
942.553	-397.31
942.722	-698.36
942.892	1585.13
943.061	-2717.65
943.23	493.56
943.399	3405.77
943.568	-729.08
943.737	1941.47
943.906	-167.93
944.075	-1300.46
944.244	1232.88
944.413	-966.64
944.582	-2662.36
944.751	-43.01
944.92	-452.6
945.089	448.51
945.258	-749.56
945.427	-606.2
945.596	-702.45
945.764	-352.25
945.933	-1247.21
946.102	909.3
946.271	-694.26
946.44	-851.95
946.608	-1425.39
946.777	-1021.94
946.946	-237.56
947.114	2062.3
947.283	-681.97
947.452	-1671.14
947.62	-1110
947.789	811
947.958	-1153.01
948.126	333.82
948.295	212.99
948.463	-1011.7
948.632	-1126.38
948.8	-841.72
948.969	-1753.06
949.137	-741.36
949.305	-1759.21
949.474	630.77
949.642	638.97
949.811	497.66
949.979	-389.11
950.147	-2084.83
950.316	-1871.84
950.484	-2158.56
950.652	-1439.72
950.82	1404.91
950.989	-2977.75
951.157	-1693.67
951.325	-2039.78
951.493	1122.29
951.661	778.23
951.83	858.1
951.998	-2547.67
952.166	-638.97
952.334	-1628.14
952.502	2906.07
952.67	991.22
952.838	675.83
953.006	2475.99
953.174	147.45
953.342	229.37
953.51	-319.48
953.678	-581.62
953.846	-2645.98
954.014	-235.52
954.181	2293.72
954.349	-1413.1
954.517	-1789.92
954.685	-1773.54
954.853	-1216.49
955.02	-1564.65
955.188	-2250.72
955.356	-1363.95
955.524	1181.68
955.691	-555
955.859	-1767.4
956.027	-458.74
956.194	2813.91
956.362	-956.4
956.529	909.3
956.697	-1265.64
956.865	452.6
957.032	1425.39
957.2	-1748.97
957.367	-2138.08
957.535	491.51
957.702	882.67
957.87	-2160.61
958.037	124.93
958.204	-1148.91
958.372	972.79
958.539	167.93
958.706	-409.59
958.874	3039.19
959.041	415.74
959.208	-2062.3
959.376	-1521.64
959.543	1011.7
959.71	-235.52
959.877	1304.56
960.044	-307.2
960.212	2758.61
960.379	3028.95
960.546	274.43
960.713	-2590.68
960.88	-665.59
961.047	-104.45
961.214	14579.49
961.381	2222.05
961.548	-753.65
961.715	-260.09
961.882	-2215.9
962.049	-827.38
962.216	-866.29
962.383	-1472.49
962.55	-892.91
962.717	1576.94
962.883	749.56
963.05	2400.22
963.217	626.68
963.384	-1226.73
963.551	-464.89
963.717	-1470.44
963.884	-155.65
964.051	446.46
964.218	1374.19
964.384	5652.39
964.551	-1953.76
964.717	-2703.32
964.884	-743.41
965.051	-1382.38
965.217	-2154.46
965.384	-2547.67
965.55	1032.18
965.717	892.91
965.883	-57.34
966.05	-1378.28
966.216	2117.6
966.383	1112.05
966.549	-40.96
966.716	-866.29
966.882	-1656.81
967.048	-1368.04
967.215	-2250.72
967.381	-1245.16
967.547	1910.75
967.713	2170.85
967.88	718.84
968.046	-2422.75
968.212	-651.25
968.378	976.88
968.545	-2387.93
968.711	1175.53
968.877	-559.1
969.043	-49.15
969.209	-1935.33
969.375	1153.01
969.541	1980.39
969.707	2629.59
969.873	1224.69
970.039	-425.98
970.205	1687.53
970.371	4800.44
970.537	1544.17
970.703	241.66
970.869	-903.15
971.035	1628.14
971.201	124.93
971.367	-1558.5
971.532	-446.46
971.698	-372.73
971.864	1390.57
972.03	-1877.99
972.195	-1396.71
972.361	2029.54
972.527	-1212.4
972.693	3143.63
972.858	1603.56
973.024	-1830.88
973.19	-606.2
973.355	215.04
973.521	573.43
973.686	1634.28
973.852	-2482.14
974.017	4325.31
974.183	-2220
974.348	569.34
974.514	-2351.07
974.679	-313.34
974.845	-1398.76
975.01	-653.3
975.175	-2906.07
975.341	18267.88
975.506	-337.91
975.672	585.72
975.837	4005.83
976.002	-159.74
976.167	-796.66
976.333	4816.82
976.498	-837.62
976.663	-1857.51
976.828	878.58
976.993	-946.16
977.159	200.7
977.324	555
977.489	3305.42
977.654	133.12
977.819	-1048.56
977.984	-342.01
978.149	2842.58
978.314	1417.19
978.479	-1232.88
978.644	-1859.56
978.809	-739.32
978.974	-1488.87
979.139	2154.46
979.304	45.06
979.469	-686.07
979.633	-743.41
979.798	-604.15
979.963	-1458.15
980.128	2920.4
980.293	-1894.37
980.457	-1495.02
980.622	-2236.38
980.787	-1701.86
980.951	-59.39
981.116	-444.41
981.281	-1767.4
981.445	-135.17
981.61	978.93
981.775	-1654.76
981.939	-2617.3
982.104	2168.8
982.268	1230.83
982.433	1320.94
982.597	-1466.35
982.762	2625.5
982.926	862.19
983.091	-786.42
983.255	-2496.47
983.419	-1798.12
983.584	1406.95
983.748	86.01
983.912	-137.21
984.077	1970.15
984.241	2152.42
984.405	-1855.46
984.57	1951.71
984.734	-557.05
984.898	-303.1
985.062	-1099.76
985.226	-1308.65
985.39	2680.79
985.555	120.83
985.719	1988.58
985.883	350.2
986.047	-1349.61
986.211	796.66
986.375	126.97
986.539	-1271.79
986.703	-1361.9
986.867	-100.35
987.031	630.77
987.195	-950.26
987.359	-1576.94
987.523	288.76
987.686	-2148.32
987.85	-1769.44
988.014	548.86
988.178	-1003.5
988.342	831.48
988.506	681.97
988.669	-356.35
988.833	268.28
988.997	753.65
989.16	-479.22
989.324	-96.25
989.488	2758.61
989.651	249.85
989.815	3362.76
989.979	-1101.81
990.142	290.81
990.306	-559.1
990.469	1568.74
990.633	954.35
990.796	2269.15
990.96	-718.84
991.123	139.26
991.286	1730.53
991.45	856.05
991.613	-1683.43
991.777	-2093.02
991.94	-2037.73
992.103	679.93
992.267	2815.96
992.43	-729.08
992.593	509.94
992.756	905.2
992.92	669.69
993.083	614.39
993.246	-131.07
993.409	-2744.28
993.572	-1892.32
993.735	-438.27
993.899	237.56
994.062	-458.74
994.225	-1003.5
994.388	126.97
994.551	2600.92
994.714	-415.74
994.877	-352.25
995.04	-1705.96
995.203	-1288.17
995.366	1417.19
995.528	-1224.69
995.691	962.55
995.854	-1535.98
996.017	-665.59
996.18	-2539.48
996.343	-428.03
996.505	1714.15
996.668	700.41
996.831	-567.29
996.994	-507.9
997.156	-378.87
997.319	-1071.09
997.482	1611.75
997.644	-1611.75
997.807	1261.55
997.97	-1873.89
998.132	-1187.82
998.295	1380.33
998.457	403.45
998.62	-980.98
998.782	-1695.72
998.945	270.33
999.107	157.69
999.27	-16.38
999.432	-665.59
999.594	555
999.757	1959.91
999.919	159.74
1000.081	-2156.51
1000.244	-249.85
1000.406	-83.97
1000.568	-131.07
1000.731	1867.75
1000.893	1908.71
1001.055	1492.97
1001.217	-612.34
1001.379	-2285.53
1001.542	-1331.18
1001.704	2983.89
1001.866	-833.52
1002.028	1013.74
1002.19	387.07
1002.352	-1216.49
1002.514	-1359.85
1002.676	5380.01
1002.838	1804.26
1003	-546.81
1003.162	-1040.37
1003.324	2166.75
1003.486	1146.86
1003.648	-1198.06
1003.809	-671.73
1003.971	999.41
1004.133	-122.88
1004.295	-241.66
1004.457	-401.4
1004.618	632.82
1004.78	-55.3
1004.942	3733.45
1005.104	-114.69
1005.265	-1343.47
1005.427	776.18
1005.589	-645.11
1005.75	393.21
1005.912	1935.33
1006.073	2156.51
1006.235	274.43
1006.396	-241.66
1006.558	-86.01
1006.72	-163.84
1006.881	393.21
1007.042	-1150.96
1007.204	-1904.61
1007.365	-1212.4
1007.527	960.5
1007.688	3186.64
1007.849	88.06
1008.011	67.58
1008.172	346.11
1008.333	825.33
1008.495	-423.93
1008.656	-1925.09
1008.817	1011.7
1008.978	2617.3
1009.139	-600.05
1009.301	608.25
1009.462	-2637.78
1009.623	962.55
1009.784	-1306.6
1009.945	229.37
1010.106	784.37
1010.267	237.56
1010.428	-1290.22
1010.589	-2105.31
1010.75	-53.25
1010.911	-1144.81
1011.072	-2332.64
1011.233	890.87
1011.394	-397.31
1011.555	120.83
1011.716	681.97
1011.877	-1150.96
1012.037	479.22
1012.198	-1206.25
1012.359	411.64
1012.52	-1382.38
1012.68	-313.34
1012.841	112.64
1013.002	387.07
1013.163	-759.8
1013.323	212.99
1013.484	-1875.94
1013.644	-1447.91
1013.805	681.97
1013.966	-581.62
1014.126	2598.87
1014.287	-679.93
1014.447	-204.8
1014.608	1437.67
1014.768	-1185.77
1014.929	1241.07
1015.089	-1359.85
1015.249	399.35
1015.41	-36.86
1015.57	1066.99
1015.731	-2121.7
1015.891	-716.79
1016.051	593.91
1016.211	-550.9
1016.372	1439.72
1016.532	-772.08
1016.692	-108.54
1016.852	587.77
1017.013	-636.92
1017.173	-22.53
1017.333	-1001.46
1017.493	-710.65
1017.653	-1507.31
1017.813	-1982.43
1017.973	-149.5
1018.133	-1458.15
1018.293	-1755.11
1018.453	-335.87
1018.613	-2007.01
1018.773	2054.11
1018.933	-94.21
1019.093	862.19
1019.253	12.29
1019.413	1183.73
1019.573	-2095.07
1019.733	-417.79
1019.892	2013.15
1020.052	-606.2
1020.212	579.58
1020.372	235.52
1020.531	1568.74
1020.691	-262.14
1020.851	317.44
1021.01	274.43
1021.17	268.28
1021.33	-579.58
1021.489	-1660.9
1021.649	-55.3
1021.808	-104.45
1021.968	270.33
1022.127	-2600.92
1022.287	1851.36
1022.446	-636.92
1022.606	573.43
1022.765	-1415.15
1022.925	2654.17
1023.084	956.4
1023.244	1931.23
1023.403	-565.24
1023.562	-1036.27
1023.722	-448.51
1023.881	-679.93
1024.04	-233.47
1024.199	548.86
1024.359	18.43
1024.518	-2220
1024.677	-901.11
1024.836	-811
1024.995	899.06
1025.154	-1103.86
1025.313	-145.41
1025.473	-1239.02
1025.632	-1331.18
1025.791	811
1025.95	-1460.2
1026.109	-761.84
1026.268	268.28
1026.427	1388.52
1026.586	1757.16
1026.744	24.58
1026.903	6086.56
1027.062	-303.1
1027.221	1134.57
1027.38	284.67
1027.539	1165.29
1027.698	4816.82
1027.856	-1261.55
1028.015	704.5
1028.174	405.5
1028.333	376.83
1028.491	4079.55
1028.65	1648.61
1028.808	3915.72
1028.967	831.48
1029.126	651.25
1029.284	-1886.18
1029.443	366.59
1029.601	-735.22
1029.76	-1480.68
1029.918	-1335.28
1030.077	831.48
1030.235	2285.53
1030.394	-772.08
1030.552	1132.53
1030.711	2695.13
1030.869	-620.53
1031.027	-706.55
1031.186	-2400.22
1031.344	-1183.73
1031.502	-270.33
1031.661	1368.04
1031.819	1933.28
1031.977	1245.16
1032.135	-1599.46
1032.293	-1007.6
1032.452	-1339.37
1032.61	3751.88
1032.768	-1628.14
1032.926	239.61
1033.084	3223.5
1033.242	-616.44
1033.4	-1558.5
1033.558	735.22
1033.716	-475.13
1033.874	-876.53
1034.032	-221.18
1034.19	-225.28
1034.348	2353.12
1034.506	-1949.67
1034.664	552.95
1034.822	-1779.68
1034.979	2408.41
1035.137	976.88
1035.295	-143.36
