Data from MgO Tm LN_USBC44471_15-14-54-705.txt Node
Date: Wed Jul 29 15:14:54 MDT 2020
User: Montana Instruments
Spectrometer: USBC4447
Scans to average: 1
Trigger mode: 4
Integration Time (sec): 1.000000E1
Electric dark correction enabled: true
Boxcar width: 0
XAxis mode: Wavelengths
Number of Pixels in Spectrum: 3648
>>>>>Begin Spectral Data<<<<<
344.991	-5374.55
345.205	-5374.55
345.419	-5374.55
345.633	-5403.22
345.847	-5476.95
346.061	-410.28
346.275	1244.48
346.489	-1223.32
346.703	-232.1
346.917	-1806.99
347.131	1027.4
347.345	-766.62
347.559	-705.18
347.773	1404.22
347.986	-123.56
348.2	2870.57
348.414	-1278.62
348.628	-848.54
348.842	-1008.28
349.056	-1180.31
349.269	363.86
349.483	1115.46
349.697	1336.64
349.911	1307.97
350.125	-1077.91
350.338	208.21
350.552	722.25
350.766	-668.32
350.979	-1610.39
351.193	-557.73
351.407	5266.69
351.621	-367.27
351.834	-1493.65
352.048	2338.1
352.262	-541.35
352.475	3226.92
352.689	1183.04
352.902	1570.11
353.116	40.28
353.33	-1548.95
353.543	-1116.83
353.757	476.49
353.971	193.87
354.184	195.92
354.398	-357.03
354.611	728.39
354.825	2843.95
355.038	1142.08
355.252	-326.31
355.465	-387.75
355.679	-1874.57
355.892	623.95
356.106	1267.01
356.319	7576.8
356.533	-543.39
356.746	-254.63
356.96	-760.48
357.173	-1458.84
357.386	1344.83
357.6	-959.13
357.813	-1118.87
358.027	-2024.08
358.24	-762.53
358.453	2598.19
358.667	-1333.91
358.88	961.86
359.094	-1018.52
359.307	204.11
359.52	-494.24
359.733	2116.92
359.947	-2267.78
360.16	1092.93
360.373	1668.41
360.587	-1122.97
360.8	-705.18
361.013	-338.6
361.226	-918.17
361.44	2549.04
361.653	1441.09
361.866	-1022.62
362.079	-2185.87
362.292	200.02
362.506	3292.45
362.719	517.45
362.932	2983.21
363.145	-49.83
363.358	-1049.24
363.571	-1497.75
363.785	-246.44
363.998	1166.66
364.211	2020.66
364.424	-1299.09
364.637	1060.17
364.85	-639.65
365.063	2014.52
365.276	189.78
365.489	-1637.01
365.702	-338.6
365.915	396.62
366.128	-527.01
366.341	1910.07
366.554	3167.53
366.767	-866.97
366.98	107.86
367.193	1000.77
367.406	-1401.49
367.619	3755.29
367.832	1754.43
368.045	111.96
368.258	333.14
368.471	1027.4
368.684	-2142.86
368.896	-1888.91
369.109	56.66
369.322	-1221.27
369.535	-314.02
369.748	-1497.75
369.961	-762.53
370.173	-2880.13
370.386	-2585.22
370.599	2592.05
370.812	-561.83
371.025	-926.36
371.237	-4.78
371.45	181.59
371.663	664.91
371.876	-793.25
372.088	4871.44
372.301	-895.64
372.514	-1544.85
372.726	396.62
372.939	-506.53
373.152	-604.83
373.364	912.71
373.577	3245.35
373.79	-701.09
374.002	-1251.99
374.215	-2916.99
374.428	-1993.36
374.64	1555.77
374.853	-1043.1
375.065	-631.46
375.278	3464.48
375.491	-47.79
375.703	1355.07
375.916	-2187.91
376.128	-631.46
376.341	-1657.49
376.553	771.4
376.766	-1563.28
376.978	-1827.47
377.191	798.03
377.403	-1786.51
377.616	3132.71
377.828	3988.76
378.04	-1354.39
378.253	-627.36
378.465	400.72
378.678	927.05
378.89	-1178.26
379.103	-848.54
379.315	220.5
379.527	-1776.27
379.74	-621.22
379.952	-223.91
380.164	-1708.69
380.377	2030.9
380.589	-27.31
380.801	91.48
381.014	1637.69
381.226	959.81
381.438	-201.38
381.65	-1360.53
381.863	13.65
382.075	-1100.44
382.287	-2294.41
382.499	-987.8
382.712	-262.82
382.924	-98.99
383.136	-879.26
383.348	-2968.19
383.56	-41.64
383.772	-996
383.985	105.81
384.197	1101.12
384.409	-578.21
384.621	384.34
384.833	48.47
385.045	200.02
385.257	-1335.96
385.469	-676.51
385.681	3.41
385.893	-115.37
386.105	-1069.72
386.318	-2630.27
386.53	-484
386.742	-3048.06
386.954	-2298.5
387.166	2802.99
387.378	-27.31
387.589	11.61
387.801	-3105.4
388.013	-1467.03
388.225	-1256.09
388.437	-2171.53
388.649	-1843.85
388.861	2581.81
389.073	1006.92
389.285	-776.86
389.497	812.36
389.709	1428.8
389.92	-1356.44
390.132	-1041.05
390.344	-826.01
390.556	-846.49
390.768	257.36
390.98	-1114.78
391.191	1682.75
391.403	519.5
391.615	216.4
391.827	-1194.65
392.038	-1022.62
392.25	-332.45
392.462	-2116.23
392.674	-2122.38
392.885	-1571.47
393.097	-2370.18
393.309	-772.77
393.52	1170.76
393.732	-1712.78
393.944	564.56
394.155	331.09
394.367	-1489.56
394.579	550.22
394.79	-1426.07
395.002	-275.11
395.213	-2632.32
395.425	-432.8
395.637	-1233.56
395.848	-2261.64
396.06	230.74
396.271	134.48
396.483	-1264.28
396.694	-361.13
396.906	-490.15
397.117	1326.4
397.329	1441.09
397.54	-987.8
397.752	-1888.91
397.963	-1182.36
398.175	167.25
398.386	1117.51
398.598	-922.27
398.809	-2409.09
399.02	707.91
399.232	605.52
399.443	-76.46
399.655	-1102.49
399.866	-1233.56
400.077	-600.74
400.289	1355.07
400.5	7.51
400.711	724.3
400.923	-1534.61
401.134	-1110.68
401.345	-2030.22
401.556	3421.47
401.768	-1227.42
401.979	-406.18
402.19	859.46
402.401	-686.75
402.613	-62.12
402.824	-885.41
403.035	-2626.18
403.246	-1888.91
403.457	339.28
403.669	89.43
403.88	-1297.05
404.091	-2230.92
404.302	-1499.8
404.513	-514.72
404.724	-1032.86
404.935	-705.18
405.146	875.85
405.358	-1749.65
405.569	-1624.72
405.78	-2093.71
405.991	-914.08
406.202	46.42
406.413	-436.9
406.624	-1507.99
406.835	-379.56
407.046	2766.12
407.257	-131.75
407.468	1168.71
407.679	-471.72
407.89	1881.4
408.101	1865.02
408.312	-613.03
408.522	-2015.88
408.733	214.35
408.944	132.44
409.155	-664.22
409.366	845.13
409.577	-1964.68
409.788	-459.43
409.999	267.6
410.209	-826.01
410.42	-68.27
410.631	-1960.59
410.842	-221.86
411.053	4840.72
411.264	1115.46
411.474	-1325.72
411.685	-131.75
411.896	-1516.18
412.107	-2237.06
412.317	-1020.57
412.528	1944.89
412.739	-2323.08
412.949	-1368.73
413.16	136.53
413.371	1998.13
413.581	1090.88
413.792	-608.93
414.003	3710.24
414.213	1609.02
414.424	-2255.5
414.635	-608.93
414.845	-1317.53
415.056	1023.3
415.266	-1768.08
415.477	-2523.78
415.687	740.68
415.898	847.18
416.109	-1925.77
416.319	372.05
416.53	-2851.46
416.74	62.8
416.951	-1405.59
417.161	-197.29
417.372	-31.4
417.582	449.87
417.792	1531.2
418.003	2147.64
418.213	-828.06
418.424	337.23
418.634	-1786.51
418.844	1160.52
419.055	1955.13
419.265	-1258.14
419.476	396.62
419.686	-996
419.896	-6.83
420.107	-1217.18
420.317	-807.58
420.527	-150.18
420.738	-510.63
420.948	943.43
421.158	1322.31
421.368	-563.87
421.579	-418.47
421.789	-1192.6
421.999	-3381.88
422.209	-443.04
422.419	-469.67
422.63	-346.79
422.84	-539.3
423.05	-1188.5
423.26	-1131.16
423.47	-301.73
423.681	-2124.43
423.891	855.37
424.101	1383.74
424.311	-815.77
424.521	-361.13
424.731	-885.41
424.941	-856.73
425.151	372.05
425.361	-1675.92
425.571	-2732.67
425.781	3937.56
425.991	677.2
426.201	1611.07
426.411	337.23
426.621	-1434.26
426.831	-2034.32
427.041	111.96
427.251	-619.17
427.461	1316.16
427.671	1029.45
427.881	-813.73
428.091	-248.49
428.301	2372.91
428.511	-131.75
428.721	-3240.57
428.93	-570.02
429.14	-1295
429.35	343.38
429.56	-1237.66
429.77	-385.7
429.98	-1325.72
430.189	-1069.72
430.399	2706.73
430.609	1314.11
430.819	363.86
431.029	-1620.63
431.238	-1004.19
431.448	-834.21
431.658	-2572.93
431.867	-815.77
432.077	255.31
432.287	-1163.93
432.497	-1041.05
432.706	-103.08
432.916	-371.36
433.125	-3000.96
433.335	-1264.28
433.545	1324.35
433.754	3849.5
433.964	-1401.49
434.174	-1010.33
434.383	2043.19
434.593	-1342.1
434.802	922.95
435.012	-1428.12
435.221	187.73
435.431	-660.13
435.64	-1165.98
435.85	-1311.38
436.059	251.22
436.269	724.3
436.478	-973.47
436.688	-2329.22
436.897	-1055.39
437.107	-2259.59
437.316	27808.69
437.525	27.99
437.735	-6.83
437.944	-25.26
438.154	2624.81
438.363	7.51
438.572	2917.67
438.782	169.3
438.991	-948.89
439.2	-387.75
439.41	-1030.81
439.619	-1176.22
439.828	163.15
440.038	13.65
440.247	2129.2
440.456	-1571.47
440.665	523.6
440.875	849.22
441.084	263.51
441.293	-1886.86
441.502	-1247.9
441.711	-1190.55
441.92	359.76
442.13	-441
442.339	-1348.25
442.548	-613.03
442.757	1662.27
442.966	-3025.53
443.175	-1006.24
443.384	1269.06
443.593	1529.15
443.803	-2136.71
444.012	-256.68
444.221	-565.92
444.43	4433.17
444.639	404.82
444.848	2112.82
445.057	-1198.74
445.266	-1546.9
445.475	-2398.85
445.684	-1307.29
445.893	2170.16
446.102	308.56
446.311	-3175.03
446.52	105.81
446.728	2788.65
446.937	-2779.78
447.146	-3633.78
447.355	367.95
447.564	-404.13
447.773	1375.55
447.982	1377.6
448.191	492.88
448.399	-1321.62
448.608	-952.99
448.817	-737.95
449.026	953.67
449.235	-1370.77
449.443	1004.87
449.652	-656.03
449.861	-899.74
450.07	179.54
450.278	1807.67
450.487	-3121.79
450.696	-21.16
450.904	-1299.09
451.113	-805.53
451.322	660.81
451.53	-834.21
451.739	2833.71
451.948	-1243.8
452.156	150.87
452.365	4265.24
452.574	767.31
452.782	236.88
452.991	-768.67
453.199	640.33
453.408	296.27
453.616	-1641.11
453.825	1162.56
454.033	1158.47
454.242	3261.73
454.45	3448.1
454.659	499.02
454.867	14869.62
455.076	-1157.78
455.284	-971.42
455.493	-1802.9
455.701	-1151.64
455.91	3067.17
456.118	-1135.26
456.326	-2136.71
456.535	2540.85
456.743	1031.49
456.951	-2210.44
457.16	1002.82
457.368	675.15
457.576	-1655.44
457.785	2594.09
457.993	-197.29
458.201	-1477.27
458.41	570.7
458.618	-1114.78
458.826	-211.62
459.034	-2941.57
459.243	-1550.99
459.451	7.51
459.659	32.08
459.867	-682.66
460.075	-926.36
460.284	-88.75
460.492	-2405
460.7	-434.85
460.908	-688.8
461.116	-2751.1
461.324	-1305.24
461.532	-2361.99
461.741	-1979.02
461.949	-981.66
462.157	2037.05
462.365	-127.66
462.573	-197.29
462.781	476.49
462.989	-987.8
463.197	-1620.63
463.405	-2265.74
463.613	44.37
463.821	-2464.39
464.029	-19.11
464.237	-1034.91
464.445	-768.67
464.653	767.31
464.861	-402.08
465.069	1342.78
465.276	4701.45
465.484	-858.78
465.692	-690.85
465.9	-1000.09
466.108	-780.96
466.316	1006.92
466.524	-666.27
466.731	-623.27
466.939	1707.32
467.147	-219.82
467.355	-262.82
467.563	1482.05
467.77	687.43
467.978	-2706.05
468.186	253.27
468.393	2096.44
468.601	-443.04
468.809	-1995.4
469.017	-862.88
469.224	-1856.14
469.432	970.05
469.64	-1442.45
469.847	-1946.25
470.055	558.41
470.263	-1190.55
470.47	-1305.24
470.678	1328.45
470.885	-246.44
471.093	2561.33
471.3	750.92
471.508	-1704.59
471.716	-567.97
471.923	81.24
472.131	261.46
472.338	-1403.54
472.546	-889.5
472.753	2938.15
472.961	-1655.44
473.168	-254.63
473.375	-537.25
473.583	1097.03
473.79	-305.83
473.998	271.7
474.205	273.75
474.412	1826.11
474.62	-903.84
474.827	-1391.25
475.035	1353.02
475.242	-1053.34
475.449	-1526.42
475.657	3917.08
475.864	3118.37
476.071	75.09
476.278	-1041.05
476.486	-744.1
476.693	261.46
476.9	273.75
477.107	245.07
477.315	-1012.38
477.522	-84.65
477.729	1363.26
477.936	-770.72
478.143	-1546.9
478.351	1350.98
478.558	-1276.57
478.765	-787.1
478.972	-469.67
479.179	300.37
479.386	720.2
479.593	832.84
479.8	916.81
480.007	-1731.22
480.215	-185
480.422	1019.21
480.629	-2349.7
480.836	890.18
481.043	2981.16
481.25	-715.42
481.457	-1477.27
481.664	-627.36
481.871	605.52
482.078	-1352.34
482.284	-1491.6
482.491	2145.59
482.698	1664.32
482.905	-1280.66
483.112	-2259.59
483.319	101.72
483.526	25.94
483.733	2311.47
483.94	-2689.67
484.146	-1784.46
484.353	-66.22
484.56	-635.55
484.767	-3215.99
484.974	2071.86
485.18	1465.66
485.387	-660.13
485.594	-1270.42
485.801	1912.12
486.007	146.77
486.214	-965.28
486.421	-2054.8
486.627	-529.06
486.834	728.39
487.041	343.38
487.247	-1237.66
487.454	-1434.26
487.661	298.32
487.867	419.15
488.074	-1698.45
488.281	980.29
488.487	-357.03
488.694	-844.45
488.9	-529.06
489.107	-1196.7
489.313	-713.38
489.52	-819.87
489.726	-1649.3
489.933	2790.7
490.139	2751.79
490.346	-510.63
490.552	286.03
490.759	-488.1
490.965	152.92
491.172	16323.68
491.378	-522.91
491.584	181.59
491.791	1553.73
491.997	-162.47
492.204	-467.62
492.41	3145
492.616	-1901.2
492.823	-1573.52
493.029	-1276.57
493.235	2256.18
493.442	-234.15
493.648	384.34
493.854	-621.22
494.06	4701.45
494.267	664.91
494.473	-928.41
494.679	-1434.26
494.885	435.53
495.091	3185.96
495.298	890.18
495.504	-2671.23
495.71	-166.57
495.916	-2013.84
496.122	2501.94
496.328	568.65
496.535	605.52
496.741	-365.22
496.947	673.1
497.153	-334.5
497.359	390.48
497.565	464.21
497.771	1813.82
497.977	-225.96
498.183	-873.12
498.389	779.59
498.595	-1565.33
498.801	329.04
499.007	859.46
499.213	-457.38
499.419	-508.58
499.625	-232.1
499.831	3208.48
500.037	-598.69
500.243	-1473.17
500.448	-594.59
500.654	871.75
500.86	1822.01
501.066	-682.66
501.272	2366.77
501.478	-1917.58
501.684	-684.7
501.889	-1880.72
502.095	-1475.22
502.301	-389.8
502.507	580.94
502.712	-625.31
502.918	-1286.81
503.124	-1075.87
503.33	875.85
503.535	-903.84
503.741	68.95
503.947	-322.21
504.152	-287.4
504.358	-2167.43
504.564	-582.31
504.769	339.28
504.975	4381.97
505.181	-53.93
505.386	-1815.18
505.592	-709.28
505.797	662.86
506.003	-2712.19
506.208	1848.63
506.414	-535.2
506.619	148.82
506.825	605.52
507.03	-2083.47
507.236	-1041.05
507.441	355.66
507.647	-258.73
507.852	134.48
508.058	1236.29
508.263	1193.28
508.469	-576.16
508.674	-2228.87
508.879	-570.02
509.085	-154.28
509.29	-1655.44
509.495	-1350.29
509.701	-979.61
509.906	1006.92
510.111	-660.13
510.317	890.18
510.522	273.75
510.727	2137.4
510.933	-727.71
511.138	298.32
511.343	-744.1
511.548	662.86
511.754	-1559.19
511.959	2362.67
512.164	-21.16
512.369	3386.66
512.574	3482.91
512.779	-1524.37
512.985	-488.1
513.19	943.43
513.395	58.71
513.6	-1151.64
513.805	-205.48
514.01	1805.63
514.215	-154.28
514.42	3077.41
514.625	-613.03
514.83	2538.8
515.035	-197.29
515.24	-15.02
515.445	3058.98
515.65	1994.04
515.855	222.55
516.06	-465.57
516.265	634.19
516.47	1320.26
516.675	169.3
516.88	-2155.15
517.085	204.11
517.29	-537.25
517.495	286.03
517.7	1613.12
517.904	-281.25
518.109	548.17
518.314	-477.86
518.519	554.32
518.724	642.38
518.928	566.6
519.133	-537.25
519.338	329.04
519.543	173.39
519.747	849.22
519.952	2913.58
520.157	6077.69
520.362	1041.73
520.566	2776.36
520.771	-2019.98
520.976	875.85
521.18	3839.26
521.385	-987.8
521.59	-903.84
521.794	593.23
521.999	2178.36
522.203	-1172.12
522.408	-502.43
522.612	-1096.35
522.817	630.09
523.022	2207.03
523.226	-252.58
523.431	-1028.76
523.635	150.87
523.84	2012.47
524.044	-881.31
524.249	1924.41
524.453	2966.82
524.657	148.82
524.862	6921.45
525.066	-1024.67
525.271	-242.34
525.475	1076.55
525.679	-72.36
525.884	-1809.04
526.088	1436.99
526.292	2751.79
526.497	220.5
526.701	-938.65
526.905	-311.97
527.11	165.2
527.314	-137.9
527.518	3513.63
527.722	-742.05
527.927	1248.58
528.131	-1909.39
528.335	5582.08
528.539	1942.84
528.744	2837.8
528.948	-1794.7
529.152	-1098.39
529.356	2524.46
529.56	654.67
529.764	144.72
529.968	81.24
530.173	7951.58
530.377	6528.24
530.581	-1637.01
530.785	1764.67
530.989	-545.44
531.193	322.9
531.397	-1346.2
531.601	290.13
531.805	1768.76
532.009	1529.15
532.213	103.76
532.417	679.24
532.621	2018.61
532.825	3466.53
533.029	27.99
533.233	781.64
533.436	601.42
533.64	245.07
533.844	1707.32
534.048	-674.46
534.252	793.93
534.456	3497.25
534.66	2243.89
534.863	21.85
535.067	290.13
535.271	2497.84
535.475	-408.23
535.679	1989.94
535.882	3198.24
536.086	2008.37
536.29	2381.11
536.493	695.63
536.697	1662.27
536.901	1035.59
537.104	2084.15
537.308	1051.97
537.512	1307.97
537.715	3951.9
537.919	1908.02
538.123	1772.86
538.326	1516.86
538.53	2823.47
538.733	3656.99
538.937	2475.31
539.141	2022.71
539.344	3108.13
539.548	2198.84
539.751	4766.99
539.955	5709.05
540.158	7507.17
540.362	4973.83
540.565	2960.68
540.768	4496.66
540.972	11066.54
541.175	9135.31
541.379	6765.81
541.582	6223.09
541.785	8004.83
541.989	9731.26
542.192	5319.94
542.396	6554.87
542.599	8733.9
542.802	9061.58
543.005	7828.7
543.209	6528.24
543.412	8449.24
543.615	8361.17
543.819	8303.83
544.022	6620.4
544.225	7615.71
544.428	7900.38
544.631	10464.44
544.835	7394.53
545.038	6294.77
545.241	6687.98
545.444	9698.5
545.647	8309.97
545.85	6900.97
546.054	5657.86
546.257	4103.45
546.46	6835.44
546.663	5965.05
546.866	6823.15
547.069	7081.19
547.272	5174.53
547.475	6143.22
547.678	5405.95
547.881	4064.54
548.084	4488.46
548.287	5059.85
548.49	2596.14
548.693	4171.03
548.896	1742.14
549.099	5289.22
549.302	2522.41
549.505	2008.37
549.707	1719.61
549.91	4007.19
550.113	1817.91
550.316	1635.64
550.519	4359.44
550.722	4193.56
550.924	1828.15
551.127	2985.26
551.33	2125.11
551.533	1594.69
551.736	1170.76
551.938	1111.36
552.141	2796.84
552.344	574.8
552.546	3003.69
552.749	1600.83
552.952	1688.89
553.154	1705.28
553.357	1897.78
553.56	1717.56
553.762	7087.34
553.965	5735.68
554.168	1959.22
554.37	3851.55
554.573	2633.01
554.775	4230.42
554.978	3255.59
555.18	326.99
555.383	1230.15
555.585	5178.63
555.788	2628.91
555.99	1264.96
556.193	1922.36
556.395	3280.16
556.598	957.77
556.8	1416.51
557.003	2047.29
557.205	5723.39
557.407	1414.46
557.61	1899.83
557.812	2317.62
558.015	4207.89
558.217	1703.23
558.419	2217.27
558.622	3857.69
558.824	2368.82
559.026	910.66
559.228	1701.18
559.431	3474.72
559.633	3235.11
559.835	1752.38
560.037	3136.81
560.24	4855.05
560.442	4080.92
560.644	1381.7
560.846	3263.78
561.048	3419.43
561.25	4490.51
561.453	2991.4
561.655	1951.03
561.857	2424.11
562.059	2174.26
562.261	4660.49
562.463	2794.79
562.665	2622.77
562.867	3730.72
563.069	3792.16
563.271	4789.52
563.473	3570.97
563.675	3087.65
563.877	3247.4
564.079	2022.71
564.281	5453.06
564.483	3724.57
564.685	2878.76
564.887	2307.38
565.089	4549.9
565.291	4498.7
565.493	1738.04
565.694	5379.33
565.896	1867.06
566.098	3890.46
566.3	5199.11
566.502	2643.24
566.704	5666.05
566.905	605.52
567.107	1410.37
567.309	1195.33
567.511	4410.64
567.712	1549.63
567.914	2602.29
568.116	492.88
568.317	4545.81
568.519	3067.17
568.721	347.47
568.922	52.56
569.124	2587.95
569.326	5158.15
569.527	2293.04
569.729	1660.22
569.93	6599.92
570.132	1926.46
570.334	4211.99
570.535	787.79
570.737	1987.9
570.938	6298.87
571.14	2161.97
571.341	3659.04
571.543	6921.45
571.744	2866.47
571.946	4287.76
572.147	1480
572.348	5377.28
572.55	4345.11
572.751	5037.32
572.953	2299.19
573.154	4117.78
573.355	6565.11
573.557	9297.1
573.758	3728.67
573.959	3194.15
574.161	5106.95
574.362	5418.24
574.563	7326.95
574.765	6006.01
574.966	6288.63
575.167	2401.58
575.368	5330.18
575.569	3640.61
575.771	5885.18
575.972	3005.74
576.173	4023.58
576.374	5534.98
576.575	4926.73
576.776	1459.52
576.978	2553.13
577.179	3108.13
577.38	4179.22
577.581	2698.54
577.782	3394.85
577.983	5160.2
578.184	5745.92
578.385	3413.28
578.586	4150.55
578.787	2458.93
578.988	3964.18
579.189	1637.69
579.39	2630.96
579.591	3546.4
579.792	2563.37
579.993	4730.13
580.194	4750.6
580.395	5913.85
580.596	3968.28
580.796	4943.11
580.997	2841.9
581.198	3550.5
581.399	5684.48
581.6	6049.02
581.801	2940.2
582.001	6716.65
582.202	2393.39
582.403	1523.01
582.604	7775.45
582.804	3613.98
583.005	4125.97
583.206	720.2
583.407	5387.52
583.607	3331.36
583.808	2843.95
584.009	5016.84
584.209	4484.37
584.41	1543.49
584.61	3136.81
584.811	3128.61
585.012	2444.59
585.212	1633.6
585.413	3206.44
585.613	3214.63
585.814	1899.83
586.014	5178.63
586.215	2587.95
586.415	3011.88
586.616	1934.65
586.816	2481.46
587.017	4558.1
587.217	1686.84
587.418	6024.44
587.618	2555.18
587.819	2581.81
588.019	1037.64
588.219	456.01
588.42	2841.9
588.62	863.56
588.82	935.24
589.021	1396.03
589.221	3388.71
589.421	1353.02
589.622	4015.38
589.822	1254.72
590.022	5412.1
590.222	3491.1
590.423	1828.15
590.623	1043.78
590.823	2975.02
591.023	2704.68
591.223	523.6
591.423	5823.74
591.624	2673.96
591.824	2315.57
592.024	1033.54
592.224	1887.54
592.424	5291.27
592.624	2301.23
592.824	2848.04
593.024	1826.11
593.224	5115.14
593.424	4580.62
593.624	2313.52
593.824	2290.99
594.024	2776.36
594.224	904.52
594.424	2379.06
594.624	494.93
594.824	1781.05
595.024	1228.1
595.224	2352.43
595.424	658.76
595.624	593.23
595.824	1023.3
596.023	3902.75
596.223	3695.9
596.423	1350.98
596.623	2669.87
596.823	-271.01
597.023	-721.57
597.222	6282.49
597.422	697.67
597.622	-420.52
597.822	953.67
598.021	2334
598.221	724.3
598.421	-645.79
598.62	1344.83
598.82	576.84
599.02	4611.34
599.219	4222.23
599.419	2444.59
599.618	425.29
599.818	2483.5
600.018	-658.08
600.217	994.63
600.417	4046.1
600.616	1195.33
600.816	1674.56
601.015	1781.05
601.215	937.29
601.414	564.56
601.614	838.98
601.813	-553.63
602.013	1942.84
602.212	1275.2
602.412	300.37
602.611	2592.05
602.81	1867.06
603.01	3044.65
603.209	1436.99
603.408	-1096.35
603.608	2555.18
603.807	996.68
604.006	6016.25
604.206	-119.46
604.405	1393.98
604.604	1838.39
604.803	1277.25
605.003	200.02
605.202	85.33
605.401	736.59
605.6	2264.37
605.8	263.51
605.999	421.2
606.198	1658.17
606.397	1994.04
606.596	834.89
606.795	2798.89
606.994	3519.78
607.193	771.4
607.393	3724.57
607.592	3771.68
607.791	1457.47
607.99	3786.01
608.189	3775.77
608.388	4578.58
608.587	4009.24
608.786	2860.33
608.985	562.51
609.184	2071.86
609.382	3415.33
609.581	2637.1
609.78	4828.43
609.979	4082.97
610.178	2874.67
610.377	2454.83
610.576	386.38
610.775	3093.8
610.973	2995.5
611.172	3960.09
611.371	2852.14
611.57	2161.97
611.769	4863.24
611.967	1428.8
612.166	4562.19
612.365	2641.2
612.564	2909.48
612.762	2954.54
612.961	3269.92
613.16	2182.45
613.358	2958.63
613.557	-107.18
613.756	2870.57
613.954	4332.82
614.153	1113.41
614.351	1205.57
614.55	406.86
614.749	3515.68
614.947	1744.19
615.146	599.37
615.344	2295.09
615.543	-74.41
615.741	2067.77
615.94	2919.72
616.138	832.84
616.337	3040.55
616.535	959.81
616.733	-0.68
616.932	1213.76
617.13	3581.21
617.329	4998.41
617.527	-1049.24
617.725	-1514.13
617.924	-936.6
618.122	214.35
618.32	-842.4
618.519	-1405.59
618.717	2538.8
618.915	2026.81
619.114	1078.6
619.312	-168.62
619.51	310.61
619.708	2338.1
619.906	-629.41
620.105	-547.49
620.303	-434.85
620.501	3857.69
620.699	-1489.56
620.897	832.84
621.095	1865.02
621.293	-1159.83
621.492	1885.5
621.69	-12.97
621.888	908.62
622.086	3196.2
622.284	896.33
622.482	392.53
622.68	707.91
622.878	91.48
623.076	56.66
623.274	9.56
623.472	326.99
623.67	1217.86
623.868	-2462.34
624.065	841.03
624.263	712.01
624.461	1078.6
624.659	-664.22
624.857	3128.61
625.055	2379.06
625.253	-354.98
625.45	-125.61
625.648	-137.9
625.846	163.15
626.044	87.38
626.242	654.67
626.439	2000.18
626.637	564.56
626.835	-273.06
627.032	1860.92
627.23	-1505.94
627.428	3351.84
627.626	1371.46
627.823	257.36
628.021	2755.88
628.218	1955.13
628.416	1303.87
628.614	-1155.74
628.811	-1602.19
629.009	-785.05
629.206	-242.34
629.404	-1030.81
629.601	50.52
629.799	-1897.1
629.996	3294.5
630.194	957.77
630.391	978.25
630.589	-533.15
630.786	1856.82
630.984	341.33
631.181	-2169.48
631.378	-666.27
631.576	1877.3
631.773	-2230.92
631.97	-1344.15
632.168	-1653.39
632.365	222.55
632.562	333.14
632.76	-928.41
632.957	294.22
633.154	200.02
633.352	529.74
633.549	-746.14
633.746	2112.82
633.943	853.32
634.14	-606.88
634.338	2159.92
634.535	-488.1
634.732	-324.26
634.929	2874.67
635.126	634.19
635.323	124.24
635.52	2250.04
635.717	486.73
635.915	-389.8
636.112	-193.19
636.309	-1823.37
636.506	-555.68
636.703	-2323.08
636.9	-369.32
637.097	5025.03
637.294	150.87
637.491	-1022.62
637.688	2133.3
637.884	-1235.61
638.081	-664.22
638.278	-338.6
638.475	-463.52
638.672	-543.39
638.869	-967.32
639.066	5919.99
639.263	689.48
639.459	689.48
639.656	-2427.53
639.853	-1616.53
640.05	15062.13
640.246	2010.42
640.443	-385.7
640.64	-2486.92
640.837	382.29
641.033	-1837.71
641.23	-295.59
641.427	-326.31
641.623	595.28
641.82	-553.63
642.017	-1286.81
642.213	-387.75
642.41	-512.67
642.606	1262.91
642.803	1197.38
643	183.63
643.196	-1372.82
643.393	2071.86
643.589	322.9
643.786	-1206.94
643.982	4334.87
644.179	1473.85
644.375	-873.12
644.571	-436.9
644.768	-1491.6
644.964	-236.2
645.161	-221.86
645.357	2647.34
645.553	326.99
645.75	2030.9
645.946	3.41
646.143	-225.96
646.339	212.31
646.535	408.91
646.731	1088.84
646.928	-219.82
647.124	-1788.56
647.32	2479.41
647.516	1926.46
647.713	-1405.59
647.909	-275.11
648.105	-625.31
648.301	-2761.34
648.497	322.9
648.693	-584.35
648.89	-522.91
649.086	-320.17
649.282	-1131.16
649.478	-586.4
649.674	240.98
649.87	2014.52
650.066	1363.26
650.262	-1180.31
650.458	1731.9
650.654	-1387.16
650.85	40.28
651.046	-494.24
651.242	-236.2
651.438	148.82
651.634	-1692.3
651.83	-871.07
652.026	501.07
652.222	-332.45
652.417	-361.13
652.613	1060.17
652.809	-1585.81
653.005	-977.56
653.201	2239.8
653.397	-1168.02
653.592	-240.29
653.788	-1378.97
653.984	1475.9
654.18	4652.3
654.375	-998.04
654.571	-236.2
654.767	-373.41
654.962	-1032.86
655.158	-2527.88
655.354	-737.95
655.549	1060.17
655.745	961.86
655.941	3403.04
656.136	-1034.91
656.332	-1565.33
656.527	-119.46
656.723	1486.14
656.918	-2042.51
657.114	-768.67
657.309	-133.8
657.505	920.9
657.7	1416.51
657.896	-1387.16
658.091	-1239.7
658.287	-813.73
658.482	-2312.84
658.678	-1067.67
658.873	283.99
659.068	3417.38
659.264	-543.39
659.459	36746.02
659.654	482.64
659.85	2268.47
660.045	-1585.81
660.24	1879.35
660.436	5348.61
660.631	-262.82
660.826	2012.47
661.021	116.05
661.217	2313.52
661.412	-821.92
661.607	-2339.46
661.802	-643.74
661.997	-473.76
662.192	568.65
662.388	-2712.19
662.583	-600.74
662.778	292.18
662.973	-1837.71
663.168	-2507.4
663.363	-1096.35
663.558	3929.37
663.753	1092.93
663.948	-2052.75
664.143	-1712.78
664.338	89.43
664.533	982.34
664.728	-651.94
664.923	-1266.33
665.118	62.8
665.313	-1077.91
665.508	1191.24
665.703	1178.95
665.897	1181
666.092	404.82
666.287	-107.18
666.482	-664.22
666.677	1865.02
666.872	1502.53
667.066	-922.27
667.261	-1260.18
667.456	107.86
667.651	1369.41
667.845	1797.43
668.04	351.57
668.235	-1409.69
668.429	1285.44
668.624	-8.87
668.819	-848.54
669.013	-1884.81
669.208	746.83
669.402	-1456.79
669.597	-45.74
669.792	-914.08
669.986	2770.22
670.181	-2163.34
670.375	191.83
670.57	-1860.24
670.764	-1067.67
670.959	-414.37
671.153	-94.89
671.348	-373.41
671.542	2368.82
671.737	-2228.87
671.931	-2718.34
672.125	275.79
672.32	941.38
672.514	1013.06
672.709	-1628.82
672.903	-211.62
673.097	-803.49
673.291	-1190.55
673.486	1371.46
673.68	15.7
673.874	-1057.43
674.069	-1053.34
674.263	689.48
674.457	1457.47
674.651	886.09
674.845	-776.86
675.04	3736.86
675.234	-1241.75
675.428	-357.03
675.622	-1393.3
675.816	-1790.61
676.01	-850.59
676.204	-17.07
676.398	191.83
676.592	-709.28
676.787	-766.62
676.981	-70.31
677.175	73.04
677.369	-3342.97
677.563	-84.65
677.757	-244.39
677.95	-1397.4
678.144	-2753.15
678.338	-1118.87
678.532	722.25
678.726	-2546.31
678.92	3093.8
679.114	-80.55
679.308	-31.4
679.502	-3730.03
679.695	-1968.78
679.889	-551.59
680.083	-2415.24
680.277	-2499.2
680.471	-373.41
680.664	-1565.33
680.858	400.72
681.052	-109.22
681.245	-1278.62
681.439	621.9
681.633	-987.8
681.826	-414.37
682.02	-1039
682.214	632.14
682.407	-1245.85
682.601	-725.66
682.795	-426.66
682.988	-633.5
683.182	-1102.49
683.375	-504.48
683.569	-936.6
683.762	773.45
683.956	1985.85
684.149	1637.69
684.343	1783.1
684.536	-1374.87
684.73	122.2
684.923	-1864.33
685.116	-2062.99
685.31	2094.39
685.503	777.55
685.696	-357.03
685.89	1015.11
686.083	-1725.07
686.276	-1008.28
686.47	71
686.663	-578.21
686.856	-299.69
687.05	1199.43
687.243	-574.11
687.436	1123.65
687.629	1772.86
687.822	390.48
688.016	-973.47
688.209	-998.04
688.402	562.51
688.595	-160.42
688.788	-2292.36
688.981	-1815.18
689.174	2743.6
689.367	77.14
689.561	-881.31
689.754	-2675.33
689.947	-633.5
690.14	-37.55
690.333	-3328.63
690.526	-891.55
690.719	1451.33
690.912	1803.58
691.104	120.15
691.297	-289.45
691.49	230.74
691.683	-959.13
691.876	-2923.13
692.069	2835.75
692.262	-137.9
692.455	343.38
692.647	-420.52
692.84	-1559.19
693.033	415.06
693.226	515.41
693.419	-1471.12
693.611	-776.86
693.804	111.96
693.997	566.6
694.189	-275.11
694.382	-1280.66
694.575	2911.53
694.767	-336.55
694.96	-1428.12
695.153	-426.66
695.345	163.15
695.538	1793.34
695.731	185.68
695.923	-828.06
696.116	144.72
696.308	1451.33
696.501	-96.94
696.693	1991.99
696.886	-1088.15
697.078	-2062.99
697.271	406.86
697.463	660.81
697.655	-225.96
697.848	120.15
698.04	-1196.7
698.233	-2230.92
698.425	-537.25
698.617	1314.11
698.81	-1399.45
699.002	-1000.09
699.194	1711.42
699.387	961.86
699.579	-1184.41
699.771	-2046.6
699.963	-2833.02
700.156	-1917.58
700.348	982.34
700.54	114
700.732	-1059.48
700.924	-742.05
701.117	-770.72
701.309	-1118.87
701.501	-2261.64
701.693	4113.69
701.885	-1028.76
702.077	1033.54
702.269	226.64
702.461	1772.86
702.653	101.72
702.845	-785.05
703.037	382.29
703.229	1989.94
703.421	-1131.16
703.613	-1338.01
703.805	3388.71
703.997	257.36
704.189	1172.8
704.381	-848.54
704.573	3757.34
704.765	-776.86
704.957	1471.81
705.148	-144.04
705.34	-1028.76
705.532	21.85
705.724	-1301.14
705.916	-2054.8
706.107	1733.95
706.299	251.22
706.491	1920.31
706.682	1492.29
706.874	-672.42
707.066	-463.52
707.258	-1577.62
707.449	-565.92
707.641	5555.46
707.832	-105.13
708.024	-823.97
708.216	-504.48
708.407	851.27
708.599	-506.53
708.79	1764.67
708.982	-1540.76
709.173	-549.54
709.365	-1139.35
709.556	-348.84
709.748	-447.14
709.939	220.5
710.131	419.15
710.322	-2165.39
710.514	2366.77
710.705	-690.85
710.896	587.08
711.088	353.62
711.279	437.58
711.47	1807.67
711.662	1056.07
711.853	-1667.73
712.044	-2343.56
712.236	283.99
712.427	17.75
712.618	-2384.52
712.809	-1196.7
713	-379.56
713.192	1465.66
713.383	-989.85
713.574	273.75
713.765	140.63
713.956	-907.93
714.147	1959.22
714.338	-1622.67
714.53	1559.87
714.721	2522.41
714.912	-1354.39
715.103	-2206.34
715.294	638.28
715.485	927.05
715.676	-2228.87
715.867	-2722.43
716.058	-647.84
716.249	1314.11
716.44	-455.33
716.63	-1821.33
716.821	-291.49
717.012	1371.46
717.203	-1346.2
717.394	-864.93
717.585	-2361.99
717.776	-778.91
717.966	-1272.47
718.157	-1579.67
718.348	478.54
718.539	-135.85
718.73	1072.45
718.92	2198.84
719.111	-922.27
719.302	453.97
719.492	-1186.46
719.683	691.53
719.874	-1245.85
720.064	4138.26
720.255	-2177.67
720.446	-488.1
720.636	1568.06
720.827	1336.64
721.017	359.76
721.208	-688.8
721.398	-1110.68
721.589	982.34
721.779	361.81
721.97	-3441.27
722.16	-1411.73
722.351	-2243.21
722.541	-1012.38
722.732	963.91
722.922	1164.61
723.112	1756.47
723.303	-1888.91
723.493	-1301.14
723.683	1097.03
723.874	2147.64
724.064	374.1
724.254	1998.13
724.445	-1108.63
724.635	2114.87
724.825	-2921.09
725.015	-815.77
725.206	-686.75
725.396	1463.62
725.586	-1327.77
725.776	828.74
725.966	3640.61
726.157	1353.02
726.347	2235.7
726.537	-332.45
726.727	1889.59
726.917	-1376.92
727.107	-1000.09
727.297	-2882.17
727.487	1934.65
727.677	-1118.87
727.867	228.69
728.057	-244.39
728.247	834.89
728.437	691.53
728.627	-961.18
728.817	-688.8
729.007	472.4
729.197	626
729.387	-924.32
729.576	-373.41
729.766	1602.88
729.956	-494.24
730.146	-914.08
730.336	-1942.16
730.525	-416.42
730.715	-1161.88
730.905	-98.99
731.095	-764.57
731.284	705.87
731.474	1738.04
731.664	-805.53
731.853	-2568.84
732.043	-1295
732.233	-1890.96
732.422	1402.18
732.612	-1421.97
732.802	421.2
732.991	73.04
733.181	-3025.53
733.37	-1628.82
733.56	-823.97
733.749	730.44
733.939	-2239.11
734.128	920.9
734.318	2702.64
734.507	-770.72
734.697	-2421.38
734.886	1451.33
735.076	-1657.49
735.265	1740.09
735.454	433.49
735.644	-1856.14
735.833	-1303.19
736.022	-283.3
736.212	-1059.48
736.401	-615.07
736.59	1135.94
736.779	-723.62
736.969	-2192.01
737.158	220.5
737.347	-1493.65
737.536	-389.8
737.726	-1426.07
737.915	1092.93
738.104	709.96
738.293	-762.53
738.482	3.41
738.671	-1454.74
738.86	-2427.53
739.049	877.9
739.238	-1327.77
739.427	-957.08
739.616	-2003.6
739.806	-1942.16
739.995	-3115.64
740.183	-1995.4
740.372	-4.78
740.561	-641.7
740.75	-3525.24
740.939	126.29
741.128	167.25
741.317	1066.31
741.506	-1290.9
741.695	126.29
741.884	834.89
742.072	1645.88
742.261	-256.68
742.45	-397.99
742.639	527.69
742.828	374.1
743.016	-713.38
743.205	-1700.5
743.394	-1620.63
743.582	1580.35
743.771	-17.07
743.96	666.96
744.148	7.51
744.337	60.76
744.526	388.43
744.714	-961.18
744.903	3937.56
745.091	9.56
745.28	2028.85
745.468	1166.66
745.657	570.7
745.845	646.48
746.034	-623.27
746.222	208.21
746.411	548.17
746.599	1176.9
746.788	763.21
746.976	-645.79
747.165	56.66
747.353	693.58
747.541	4816.14
747.73	-1462.93
747.918	2151.73
748.106	1813.82
748.295	2354.48
748.483	1574.21
748.671	1006.92
748.859	1049.93
749.048	2684.2
749.236	669
749.424	388.43
749.612	3054.89
749.8	855.37
749.989	912.71
750.177	1844.54
750.365	2166.07
750.553	2145.59
750.741	-551.59
750.929	5164.29
751.117	1160.52
751.305	2053.43
751.493	978.25
751.681	-29.35
751.869	1434.94
752.057	2700.59
752.245	980.29
752.433	2936.1
752.621	1951.03
752.809	3220.77
752.997	2925.86
753.185	2649.39
753.373	1879.35
753.56	1824.06
753.748	2710.83
753.936	1875.26
754.124	2460.98
754.312	1471.81
754.499	4515.09
754.687	3020.07
754.875	3497.25
755.063	1508.67
755.25	3505.44
755.438	4476.18
755.626	3464.48
755.813	828.74
756.001	3558.69
756.189	1359.17
756.376	1723.71
756.564	2340.15
756.751	3333.41
756.939	916.81
757.127	4785.42
757.314	2352.43
757.502	949.57
757.689	4541.71
757.877	3618.08
758.064	3835.16
758.251	1631.55
758.439	3814.68
758.626	5141.77
758.814	1779
759.001	4584.72
759.188	4554
759.376	560.46
759.563	3747.1
759.75	4130.07
759.938	2057.53
760.125	2080.05
760.312	2821.42
760.5	2594.09
760.687	3669.28
760.874	1658.17
761.061	3984.66
761.248	202.07
761.436	6466.8
761.623	2413.87
761.81	3292.45
761.997	3861.79
762.184	2270.51
762.371	2290.99
762.558	2618.67
762.745	4498.7
762.932	3046.69
763.119	3441.95
763.306	2952.49
763.493	3210.53
763.68	3214.63
763.867	4726.03
764.054	1594.69
764.241	2307.38
764.428	4562.19
764.615	2794.79
764.802	2950.44
764.989	1961.27
765.176	2886.95
765.362	4113.69
765.549	2219.32
765.736	10595.51
765.923	4549.9
766.11	4478.23
766.296	2837.8
766.483	394.58
766.67	3370.27
766.857	4197.65
767.043	1934.65
767.23	3654.94
767.417	4764.94
767.603	3912.99
767.79	2604.33
767.976	5469.44
768.163	5074.18
768.35	4046.1
768.536	2741.55
768.723	2723.12
768.909	4945.16
769.096	5563.65
769.282	3073.32
769.469	2495.79
769.655	5874.94
769.842	3947.8
770.028	1652.03
770.214	3188
770.401	3577.12
770.587	2473.26
770.774	245.07
770.96	224.59
771.146	3663.13
771.333	4031.77
771.519	2581.81
771.705	3546.4
771.891	2149.68
772.078	8058.07
772.264	4504.85
772.45	2960.68
772.636	3378.47
772.822	2698.54
773.009	6798.57
773.195	4013.34
773.381	4003.1
773.567	4535.57
773.753	2579.76
773.939	1408.32
774.125	1350.98
774.311	3210.53
774.497	1537.34
774.683	2434.35
774.869	4904.2
775.055	6386.93
775.241	2166.07
775.427	3845.4
775.613	2254.13
775.799	5520.64
775.985	2100.53
776.171	3169.57
776.357	3575.07
776.543	3511.58
776.729	2864.43
776.914	3466.53
777.1	4820.24
777.286	7318.76
777.472	3171.62
777.657	2981.16
777.843	6300.92
778.029	6284.53
778.215	4273.43
778.4	3601.69
778.586	6567.15
778.772	5152.01
778.957	4748.56
779.143	2514.22
779.329	3620.13
779.514	2690.35
779.7	3839.26
779.885	1555.77
780.071	4240.66
780.256	4476.18
780.442	4263.19
780.627	1957.18
780.813	4908.3
780.998	5756.16
781.184	4922.63
781.369	2651.44
781.555	5164.29
781.74	3771.68
781.925	6034.68
782.111	3108.13
782.296	4039.96
782.481	4689.17
782.667	4238.61
782.852	5373.19
783.037	3874.07
783.223	3894.55
783.408	3757.34
783.593	5383.43
783.778	3173.67
783.963	4736.27
784.149	5235.97
784.334	3974.42
784.519	4281.62
784.704	2827.56
784.889	4637.97
785.074	3200.29
785.259	4218.13
785.444	6991.08
785.629	2913.58
785.814	2432.3
785.999	4222.23
786.184	7474.4
786.369	3869.98
786.554	2434.35
786.739	6110.46
786.924	5547.26
787.109	5362.95
787.294	6747.37
787.479	6673.65
787.664	5553.41
787.849	7116.01
788.034	6853.87
788.218	7564.51
788.403	6810.86
788.588	8316.12
788.773	8156.38
788.957	6907.12
789.142	9905.34
789.327	9274.57
789.512	8946.89
789.696	13368.46
789.881	13980.8
790.066	10890.42
790.25	14232.7
790.435	11809.95
790.619	14277.76
790.804	14001.28
790.989	13642.89
791.173	16837.72
791.358	15119.47
791.542	13780.1
791.727	14857.33
791.911	14746.74
792.096	14083.2
792.28	15098.99
792.465	15590.5
792.649	15604.84
792.833	16698.45
793.018	15637.61
793.202	17402.96
793.386	19282.99
793.571	18459.71
793.755	17144.91
793.939	15432.81
794.124	16770.13
794.308	17409.1
794.492	16313.44
794.676	15565.93
794.861	16577.62
795.045	17869.89
795.229	14638.2
795.413	17628.23
795.597	15731.81
795.781	15889.51
795.966	18347.07
796.15	15094.9
796.334	18920.5
796.518	17411.15
796.702	13581.45
796.886	14685.3
797.07	15920.23
797.254	14863.47
797.438	12594.33
797.622	12022.94
797.806	12534.93
797.99	13409.42
798.174	11984.03
798.358	13618.31
798.541	13470.86
798.725	13888.64
798.909	11138.22
799.093	11668.64
799.277	11238.57
799.461	12074.14
799.644	7298.28
799.828	10552.5
800.012	12553.37
800.196	10122.43
800.379	10038.46
800.563	8328.41
800.747	11857.06
800.93	9706.69
801.114	9039.05
801.298	8299.73
801.481	11951.26
801.665	11625.64
801.848	7744.74
802.032	9051.34
802.216	12924.05
802.399	9014.48
802.583	8035.55
802.766	6991.08
802.95	9843.9
803.133	10910.89
803.317	7591.14
803.5	7404.77
803.683	9280.71
803.867	7298.28
804.05	10161.34
804.233	11011.25
804.417	11697.31
804.6	8391.89
804.783	9686.21
804.967	10880.18
805.15	9559.24
805.333	8883.41
805.517	9561.28
805.7	7283.94
805.883	8502.48
806.066	10243.26
806.249	10478.77
806.432	6747.37
806.616	8781.01
806.799	6730.99
806.982	7793.89
807.165	8576.21
807.348	8596.69
807.531	7126.25
807.714	7736.54
807.897	8697.04
808.08	9155.79
808.263	9673.92
808.446	9546.95
808.629	8459.48
808.812	7544.03
808.995	8328.41
809.178	10159.29
809.361	9622.72
809.544	9712.83
809.726	10839.22
809.909	9778.37
810.092	9059.53
810.275	9571.52
810.458	11375.78
810.64	9745.6
810.823	9229.51
811.006	8461.52
811.189	10501.3
811.371	7267.56
811.554	8275.16
811.737	9546.95
811.919	9434.31
812.102	7318.76
812.285	5948.67
812.467	8961.23
812.65	7781.6
812.832	6890.73
813.015	9776.32
813.197	9352.39
813.38	9516.23
813.562	9911.49
813.745	6268.15
813.927	5928.19
814.11	9075.91
814.292	7408.87
814.475	6591.73
814.657	7154.92
814.839	8713.42
815.022	6530.29
815.204	11130.03
815.386	10325.18
815.569	9147.59
815.751	5711.1
815.933	9073.87
816.116	9094.35
816.298	8994
816.48	7539.94
816.662	6561.01
816.844	8117.47
817.027	7953.63
817.209	6798.57
817.391	5942.52
817.573	7335.14
817.755	7369.96
817.937	7769.31
818.119	6880.49
818.301	6671.6
818.483	7617.76
818.665	6698.22
818.847	8592.59
819.029	7781.6
819.211	5815.55
819.393	7503.07
819.575	10042.56
819.757	9374.92
819.939	7703.78
820.121	7423.2
820.303	7699.68
820.485	10517.68
820.666	9911.49
820.848	9708.74
821.03	6978.79
821.212	8920.27
821.394	5199.11
821.575	7757.02
821.757	9288.9
821.939	7810.27
822.121	7662.82
822.302	10239.16
822.484	8123.61
822.666	4914.44
822.847	6317.3
823.029	4263.19
823.21	8195.29
823.392	5020.94
823.573	6518
823.755	5434.63
823.937	5567.74
824.118	5836.03
824.3	11682.98
824.481	5608.7
824.662	5938.43
824.844	6593.78
825.025	7793.89
825.207	4795.66
825.388	6440.18
825.569	5113.1
825.751	5856.51
825.932	9155.79
826.113	4648.21
826.295	7498.98
826.476	7232.74
826.657	6345.97
826.839	5778.69
827.02	7087.34
827.201	9643.2
827.382	5987.58
827.563	7331.05
827.744	5555.46
827.926	6784.24
828.107	8160.47
828.288	4457.75
828.469	6681.84
828.65	7163.11
828.831	4052.25
829.012	6112.5
829.193	8010.97
829.374	5149.96
829.555	8299.73
829.736	11218.09
829.917	9141.45
830.098	7451.88
830.279	3710.24
830.46	4853
830.641	5741.82
830.822	5678.33
831.002	7531.75
831.183	4660.49
831.364	7001.32
831.545	6829.29
831.726	5702.91
831.906	5483.78
832.087	6753.52
832.268	6442.23
832.449	7294.18
832.629	3530.02
832.81	4674.83
832.991	4332.82
833.171	6003.96
833.352	5850.36
833.532	7142.63
833.713	4519.18
833.894	5160.2
834.074	3013.93
834.255	4263.19
834.435	4392.21
834.616	4336.92
834.796	4785.42
834.977	6155.51
835.157	8596.69
835.338	4113.69
835.518	3052.84
835.698	5471.49
835.879	3960.09
836.059	5203.21
836.239	5186.82
836.42	5141.77
836.6	5522.69
836.78	2821.42
836.961	4052.25
837.141	6489.33
837.321	3429.66
837.501	8488.15
837.682	3955.99
837.862	4611.34
838.042	10327.22
838.222	4076.82
838.402	4240.66
838.582	4500.75
838.763	5377.28
838.943	4304.15
839.123	6739.18
839.303	4820.24
839.483	6186.23
839.663	2051.38
839.843	15420.52
840.023	6618.35
840.203	6196.47
840.383	4203.8
840.563	3960.09
840.742	4433.17
840.922	3708.19
841.102	5696.77
841.282	4447.51
841.462	4619.53
841.642	4322.58
841.822	2901.29
842.001	2000.18
842.181	5215.49
842.361	5365
842.541	6208.76
842.72	5186.82
842.9	3824.92
843.08	4775.18
843.259	4214.04
843.439	4255
843.619	3626.27
843.798	4275.48
843.978	5469.44
844.157	3538.21
844.337	5453.06
844.517	3579.17
844.696	6716.65
844.876	5391.62
845.055	3034.41
845.235	5498.11
845.414	4648.21
845.593	2882.86
845.773	3542.3
845.952	1781.05
846.132	2278.71
846.311	2610.48
846.49	4855.05
846.67	5121.29
846.849	3419.43
847.028	2598.19
847.208	5156.1
847.387	3061.03
847.566	6753.52
847.745	2798.89
847.924	4955.4
848.104	4963.59
848.283	4844.81
848.462	5543.17
848.641	6059.26
848.82	4007.19
848.999	6524.15
849.178	3450.14
849.358	5317.89
849.537	3949.85
849.716	3398.95
849.895	2524.46
850.074	6092.02
850.253	5971.19
850.432	4416.79
850.61	3999
850.789	3339.55
850.968	6210.81
851.147	6116.6
851.326	2770.22
851.505	4080.92
851.684	4586.77
851.863	5801.21
852.041	4742.41
852.22	3538.21
852.399	3181.86
852.578	5082.38
852.756	1977.66
852.935	3585.31
853.114	5704.96
853.293	2618.67
853.471	7050.47
853.65	4680.97
853.828	3710.24
854.007	2938.15
854.186	4453.65
854.364	5793.02
854.543	4500.75
854.721	3261.73
854.9	4865.29
855.078	6397.17
855.257	3730.72
855.435	1146.18
855.614	4293.91
855.792	3353.89
855.971	3499.3
856.149	2125.11
856.327	4830.48
856.506	4132.12
856.684	3071.27
856.862	2858.28
857.041	664.91
857.219	5659.9
857.397	2811.18
857.576	3140.9
857.754	3106.09
857.932	5102.86
858.11	3759.39
858.288	3394.85
858.467	1762.62
858.645	2063.67
858.823	3204.39
859.001	4500.75
859.179	2151.73
859.357	2692.4
859.535	4750.6
859.713	5229.83
859.891	4730.13
860.069	7425.25
860.247	3087.65
860.425	1455.42
860.603	4429.07
860.781	5500.16
860.959	4328.72
861.137	1383.74
861.315	2442.54
861.493	4099.35
861.67	5326.08
861.848	5229.83
862.026	2997.54
862.204	3026.22
862.382	3314.98
862.559	3644.7
862.737	4662.54
862.915	5164.29
863.093	3130.66
863.27	5629.18
863.448	5395.72
863.626	3779.87
863.803	3429.66
863.981	2723.12
864.158	1226.05
864.336	2780.46
864.514	2448.69
864.691	1776.95
864.869	2397.49
865.046	2069.81
865.224	3740.96
865.401	5125.38
865.578	2450.74
865.756	5924.09
865.933	980.29
866.111	5002.51
866.288	2387.25
866.465	2886.95
866.643	2096.44
866.82	2598.19
866.997	2608.43
867.175	2870.57
867.352	2590
867.529	638.28
867.706	2342.19
867.884	3325.22
868.061	3257.64
868.238	2592.05
868.415	1834.3
868.592	2352.43
868.77	2368.82
868.947	4752.65
869.124	2592.05
869.301	1049.93
869.478	3382.56
869.655	247.12
869.832	3257.64
870.009	5897.47
870.186	5766.4
870.363	3341.6
870.54	3312.93
870.717	2661.68
870.894	2968.87
871.071	3898.65
871.247	1518.91
871.424	2090.29
871.601	2823.47
871.778	2297.14
871.955	2563.37
872.132	3499.3
872.308	3022.12
872.485	2733.36
872.662	2293.04
872.839	4900.11
873.015	2118.97
873.192	3300.64
873.369	2450.74
873.545	2377.01
873.722	3147.05
873.898	2975.02
874.075	2379.06
874.252	3233.06
874.428	2698.54
874.605	2995.5
874.781	275.79
874.958	1817.91
875.134	3833.11
875.311	3534.11
875.487	3310.88
875.663	4961.55
875.84	3061.03
876.016	3865.88
876.193	3587.36
876.369	1797.43
876.545	2008.37
876.722	1672.51
876.898	2862.38
877.074	3245.35
877.25	3976.47
877.427	8502.48
877.603	2227.51
877.779	2268.47
877.955	2489.65
878.132	4842.76
878.308	4312.34
878.484	5823.74
878.66	1328.45
878.836	2979.11
879.012	2682.16
879.188	3226.92
879.364	2780.46
879.54	2020.66
879.716	1004.87
879.892	2790.7
880.068	4275.48
880.244	6270.2
880.42	1643.84
880.596	2186.55
880.772	1985.85
880.948	1858.87
881.124	3470.62
881.3	7531.75
881.475	2778.41
881.651	2501.94
881.827	2200.88
882.003	2516.27
882.178	515.41
882.354	2194.74
882.53	1584.45
882.706	2665.77
882.881	3093.8
883.057	1219.91
883.233	2557.23
883.408	4291.86
883.584	1826.11
883.759	978.25
883.935	757.07
884.111	589.13
884.286	2137.4
884.462	367.95
884.637	2032.95
884.813	933.19
884.988	2227.51
885.164	5811.45
885.339	1166.66
885.514	4076.82
885.69	1453.38
885.865	617.8
886.04	3290.4
886.216	1688.89
886.391	3474.72
886.566	2481.46
886.742	568.65
886.917	2696.49
887.092	4572.43
887.267	646.48
887.443	374.1
887.618	1361.22
887.793	1482.05
887.968	3128.61
888.143	773.45
888.318	2254.13
888.494	3339.55
888.669	2286.9
888.844	2471.22
889.019	2157.88
889.194	2026.81
889.369	1502.53
889.544	1852.73
889.719	3695.9
889.894	4984.07
890.069	2938.15
890.243	3454.24
890.418	1899.83
890.593	1326.4
890.768	2696.49
890.943	4441.36
891.118	2004.28
891.293	2512.18
891.467	1201.48
891.642	5678.33
891.817	1887.54
891.992	2805.03
892.166	1434.94
892.341	3722.52
892.516	2549.04
892.69	2845.99
892.865	400.72
893.04	2305.33
893.214	3912.99
893.389	3034.41
893.563	5442.82
893.738	5704.96
893.912	1811.77
894.087	2708.78
894.261	3964.18
894.436	1314.11
894.61	5285.12
894.785	2659.63
894.959	2252.08
895.134	4465.94
895.308	1226.05
895.482	3577.12
895.657	1318.21
895.831	1604.92
896.005	8215.77
896.18	1817.91
896.354	2571.57
896.528	535.89
896.702	2802.99
896.877	4404.5
897.051	720.2
897.225	2782.51
897.399	2678.06
897.573	1639.74
897.747	2551.09
897.922	2344.24
898.096	4056.34
898.27	865.61
898.444	1551.68
898.618	2567.47
898.792	2286.9
898.966	2522.41
899.14	3192.1
899.314	3046.69
899.488	4304.15
899.662	2295.09
899.835	2225.46
900.009	2239.8
900.183	533.84
900.357	5506.31
900.531	1135.94
900.705	802.12
900.878	-74.41
901.052	920.9
901.226	2626.86
901.4	2131.25
901.573	539.98
901.747	114
901.921	1307.97
902.095	1551.68
902.268	2997.54
902.442	58.71
902.615	-971.42
902.789	2350.39
902.963	6927.6
903.136	595.28
903.31	3257.64
903.483	-443.04
903.657	2229.56
903.83	1111.36
904.004	-1929.87
904.177	884.04
904.35	52.56
904.524	-1634.96
904.697	636.24
904.871	648.52
905.044	1596.73
905.217	4967.69
905.391	3487.01
905.564	1332.55
905.737	658.76
905.91	-164.52
906.084	-2093.71
906.257	689.48
906.43	-2085.51
906.603	202.07
906.776	-3222.14
906.949	-1049.24
907.123	-1286.81
907.296	-309.93
907.469	2104.63
907.642	-520.87
907.815	1445.18
907.988	-41.64
908.161	-1086.11
908.334	-1125.02
908.507	984.39
908.68	568.65
908.853	32.08
909.026	-754.34
909.199	-414.37
909.371	2231.6
909.544	1400.13
909.717	-47.79
909.89	-1366.68
910.063	-1272.47
910.236	-146.09
910.408	363.86
910.581	-2208.39
910.754	-2282.12
910.927	-2779.78
911.099	179.54
911.272	458.06
911.445	17.75
911.617	-615.07
911.79	1520.96
911.962	-592.55
912.135	-938.65
912.308	-49.83
912.48	-1782.42
912.653	-1188.5
912.825	-944.8
912.998	-883.36
913.17	1068.36
913.343	1342.78
913.515	-729.76
913.687	-1663.63
913.86	-60.07
914.032	1568.06
914.205	-506.53
914.377	-117.42
914.549	-3072.64
914.721	539.98
914.894	-1460.88
915.066	-506.53
915.238	-1688.21
915.41	2112.82
915.583	255.31
915.755	-1837.71
915.927	-47.79
916.099	1058.12
916.271	-826.01
916.443	-1903.25
916.616	-2192.01
916.788	21603.34
916.96	2166.07
917.132	-3641.97
917.304	-340.65
917.476	1645.88
917.648	283.99
917.82	-2900.61
917.992	787.79
918.164	965.96
918.335	175.44
918.507	1068.36
918.679	-2357.89
918.851	1514.81
919.023	-502.43
919.195	-209.58
919.366	-2169.48
919.538	-2767.49
919.71	-1692.3
919.882	-1563.28
920.053	-1864.33
920.225	-1313.43
920.397	1514.81
920.568	-1729.17
920.74	-1376.92
920.912	-1108.63
921.083	-1602.19
921.255	-2013.84
921.426	-2118.28
921.598	-84.65
921.77	-934.56
921.941	-1991.31
922.113	-1850
922.284	1267.01
922.455	-1274.52
922.627	-2310.79
922.798	-1983.12
922.97	-1532.56
923.141	-1421.97
923.312	-3314.3
923.484	566.6
923.655	-2482.82
923.826	564.56
923.998	-1274.52
924.169	785.74
924.34	-1782.42
924.511	-213.67
924.683	-236.2
924.854	-1340.05
925.025	-348.84
925.196	593.23
925.367	757.07
925.538	46.42
925.709	-346.79
925.881	392.53
926.052	-1458.84
926.223	-981.66
926.394	773.45
926.565	-1000.09
926.736	-3512.95
926.907	-1737.36
927.078	-176.81
927.248	3908.89
927.419	480.59
927.59	-2861.69
927.761	683.34
927.932	748.87
928.103	-563.87
928.274	-1411.73
928.444	-473.76
928.615	-1190.55
928.786	-1309.33
928.957	-2183.82
929.127	-1325.72
929.298	73.04
929.469	-1364.63
929.639	-811.68
929.81	-402.08
929.981	-271.01
930.151	329.04
930.322	3306.79
930.492	505.17
930.663	3280.16
930.833	-1649.3
931.004	-365.22
931.174	261.46
931.345	54.61
931.515	-1950.35
931.686	-445.09
931.856	1856.82
932.027	-1991.31
932.197	757.07
932.367	-1708.69
932.538	1264.96
932.708	-1325.72
932.878	-150.18
933.048	-819.87
933.219	-1266.33
933.389	1649.98
933.559	-1610.39
933.729	-1929.87
933.9	179.54
934.07	-2073.23
934.24	-2421.38
934.41	-35.5
934.58	-103.08
934.75	798.03
934.92	-2984.57
935.09	99.67
935.26	-1346.2
935.43	2202.93
935.6	-946.84
935.77	546.13
935.94	220.5
936.11	-1249.94
936.28	-1694.35
936.45	834.89
936.62	-43.69
936.79	548.17
936.96	-776.86
937.129	-981.66
937.299	-17.07
937.469	-41.64
937.639	34.13
937.808	-934.56
937.978	-2275.98
938.148	1373.5
938.317	11.61
938.487	189.78
938.657	-1456.79
938.826	-1559.19
938.996	-799.39
939.166	-3613.3
939.335	-2228.87
939.505	-55.98
939.674	-1307.29
939.844	-1884.81
940.013	34.13
940.183	-2189.96
940.352	-1979.02
940.522	-578.21
940.691	-1122.97
940.86	535.89
941.03	-975.52
941.199	-64.17
941.368	494.93
941.538	1125.7
941.707	-1972.88
941.876	-576.16
942.046	820.55
942.215	-78.51
942.384	-2097.8
942.553	-602.79
942.722	-797.34
942.892	1555.77
943.061	-2837.12
943.23	114
943.399	3439.9
943.568	-701.09
943.737	1824.06
943.906	-2.73
944.075	-1614.48
944.244	1254.72
944.413	-799.39
944.582	-2648.71
944.751	-15.02
944.92	-539.3
945.089	408.91
945.258	-737.95
945.427	-770.72
945.596	-688.8
945.764	-756.38
945.933	-1348.25
946.102	957.77
946.271	-811.68
946.44	-950.94
946.608	-1426.07
946.777	-993.95
946.946	-496.29
947.114	1916.22
947.283	-948.89
947.452	-1723.02
947.62	-1112.73
947.789	763.21
947.958	-1307.29
948.126	148.82
948.295	171.35
948.463	-1039
948.632	-1168.02
948.8	-723.62
948.969	-1763.98
949.137	-971.42
949.305	-1766.03
949.474	779.59
949.642	740.68
949.811	376.14
949.979	-438.95
950.147	-2056.84
950.316	-1997.45
950.484	-2323.08
950.652	-1487.51
950.82	1459.52
950.989	-2949.76
951.157	-1749.65
951.325	-1999.5
951.493	914.76
951.661	687.43
951.83	628.04
951.998	-2638.47
952.166	-678.56
952.334	-1860.24
952.502	2731.31
952.67	847.18
952.838	587.08
953.006	2372.91
953.174	75.09
953.342	232.79
953.51	-484
953.678	-801.44
953.846	-2699.91
954.014	-234.15
954.181	2049.33
954.349	-1546.9
954.517	-1903.25
954.685	-1954.44
954.853	-1276.57
955.02	-1751.7
955.188	-2296.46
955.356	-1391.25
955.524	988.49
955.691	-574.11
955.859	-1682.06
956.027	-649.89
956.194	2643.24
956.362	-1004.19
956.529	654.67
956.697	-1286.81
956.865	335.18
957.032	1396.03
957.2	-2546.31
957.367	-2140.81
957.535	228.69
957.702	836.94
957.87	-2157.19
958.037	105.81
958.204	-1141.4
958.372	910.66
958.539	161.11
958.706	-426.66
958.874	3085.61
959.041	378.19
959.208	-2042.51
959.376	-1544.85
959.543	908.62
959.71	-283.3
959.877	1213.76
960.044	-279.21
960.212	2725.16
960.379	3018.02
960.546	105.81
960.713	-2667.14
960.88	-713.38
961.047	-90.79
961.214	14281.85
961.381	2114.87
961.548	-875.17
961.715	-457.38
961.882	-2333.32
962.049	-934.56
962.216	-887.45
962.383	-1401.49
962.55	-881.31
962.717	1709.37
962.883	859.46
963.05	2399.54
963.217	453.97
963.384	-1331.86
963.551	-451.24
963.717	-1360.53
963.884	-62.12
964.051	277.84
964.218	1459.52
964.384	5702.91
964.551	-1899.15
964.717	-2667.14
964.884	-596.64
965.051	-1424.02
965.217	-2267.78
965.384	-2687.62
965.55	1074.5
965.717	773.45
965.883	-84.65
966.05	-1495.7
966.216	2342.19
966.383	894.28
966.549	-152.23
966.716	-864.93
966.882	-1716.88
967.048	-1426.07
967.215	-2321.03
967.381	-1163.93
967.547	1822.01
967.713	2075.96
967.88	494.93
968.046	-2273.93
968.212	-866.97
968.378	890.18
968.545	-2462.34
968.711	982.34
968.877	-684.7
969.043	-105.13
969.209	-2085.51
969.375	1039.69
969.541	1856.82
969.707	2630.96
969.873	1158.47
970.039	-676.51
970.205	1572.16
970.371	4914.44
970.537	1391.94
970.703	298.32
970.869	-961.18
971.035	1666.36
971.201	81.24
971.367	-1581.71
971.532	-490.15
971.698	-535.2
971.864	1226.05
972.03	-1972.88
972.195	-1381.01
972.361	1836.35
972.527	-1348.25
972.693	3073.32
972.858	1586.49
973.024	-1907.34
973.19	-561.83
973.355	179.54
973.521	638.28
973.686	1404.22
973.852	-2536.07
974.017	4140.31
974.183	-2331.27
974.348	515.41
974.514	-2353.8
974.679	-365.22
974.845	-1338.01
975.01	-420.52
975.175	-3017.34
975.341	17917
975.506	-254.63
975.672	501.07
975.837	3964.18
976.002	-148.14
976.167	-901.79
976.333	4648.21
976.498	-1071.77
976.663	-1890.96
976.828	906.57
976.993	-961.18
977.159	73.04
977.324	521.55
977.489	2897.19
977.654	34.13
977.819	-1034.91
977.984	-459.43
978.149	2700.59
978.314	1359.17
978.479	-1059.48
978.644	-1923.73
978.809	-795.29
978.974	-1649.3
979.139	1989.94
979.304	36.18
979.469	-850.59
979.633	-733.86
979.798	-488.1
979.963	-1606.29
980.128	2657.58
980.293	-1886.86
980.457	-1624.72
980.622	-2290.31
980.787	-1763.98
980.951	-232.1
981.116	-299.69
981.281	-1759.89
981.445	-266.92
981.61	777.55
981.775	-1874.57
981.939	-2691.71
982.104	2026.81
982.268	1189.19
982.433	1232.19
982.597	-1690.26
982.762	2604.33
982.926	656.72
983.091	-737.95
983.255	-2540.16
983.419	-1774.22
983.584	1533.25
983.748	-94.89
983.912	-213.67
984.077	1953.08
984.241	1922.36
984.405	-1798.8
984.57	1727.8
984.734	-504.48
984.898	-479.91
985.062	-1159.83
985.226	-1405.59
985.39	2522.41
985.555	-78.51
985.719	1908.02
985.883	265.55
986.047	-1530.52
986.211	621.9
986.375	-107.18
986.539	-1270.42
986.703	-1393.3
986.867	-260.77
987.031	558.41
987.195	-1065.63
987.359	-1624.72
987.523	154.96
987.686	-2017.93
987.85	-1856.14
988.014	462.16
988.178	-1036.95
988.342	724.3
988.506	468.3
988.669	-475.81
988.833	255.31
988.997	503.12
989.16	-553.63
989.324	-207.53
989.488	2811.18
989.651	-58.03
989.815	3185.96
989.979	-1139.35
990.142	163.15
990.306	-582.31
990.469	1766.71
990.633	1058.12
990.796	2116.92
990.96	-856.73
991.123	204.11
991.286	1592.64
991.45	927.05
991.613	-1694.35
991.777	-2165.39
991.94	-2028.17
992.103	609.61
992.267	2682.16
992.43	-737.95
992.593	382.29
992.756	730.44
992.92	552.27
993.083	615.76
993.246	-350.89
993.409	-2767.49
993.572	-2265.74
993.735	-541.35
993.899	167.25
994.062	-613.03
994.225	-1043.1
994.388	183.63
994.551	2549.04
994.714	-340.65
994.877	-529.06
995.04	-1637.01
995.203	-1319.57
995.366	1140.04
995.528	-1364.63
995.691	841.03
995.854	-1520.28
996.017	-907.93
996.18	-2650.75
996.343	-537.25
996.505	1645.88
996.668	585.04
996.831	-520.87
996.994	-578.21
997.156	-297.64
997.319	-1331.86
997.482	1381.7
997.644	-1618.58
997.807	996.68
997.97	-2015.88
998.132	-1295
998.295	1197.38
998.457	386.38
998.62	-1237.66
998.782	-1682.06
998.945	267.6
999.107	-113.32
999.27	58.71
999.432	-854.69
999.594	527.69
999.757	1772.86
999.919	275.79
1000.081	-2288.26
1000.244	-279.21
1000.406	-215.72
1000.568	-234.15
1000.731	1953.08
1000.893	1467.71
1001.055	1549.63
1001.217	-596.64
1001.379	-2169.48
1001.542	-1428.12
1001.704	3196.2
1001.866	-754.34
1002.028	1047.88
1002.19	267.6
1002.352	-1184.41
1002.514	-1581.71
1002.676	5457.15
1002.838	1695.04
1003	-658.08
1003.162	-1202.84
1003.324	2293.04
1003.486	1090.88
1003.648	-1155.74
1003.809	-682.66
1003.971	836.94
1004.133	-135.85
1004.295	-467.62
1004.457	-369.32
1004.618	548.17
1004.78	75.09
1004.942	3677.47
1005.104	3.41
1005.265	-1540.76
1005.427	783.69
1005.589	-688.8
1005.75	429.39
1005.912	1783.1
1006.073	1940.79
1006.235	265.55
1006.396	-291.49
1006.558	-342.69
1006.72	-285.35
1006.881	286.03
1007.042	-1223.32
1007.204	-1876.62
1007.365	-1251.99
1007.527	1011.01
1007.688	3026.22
1007.849	-68.27
1008.011	19.8
1008.172	402.77
1008.333	726.35
1008.495	-434.85
1008.656	-2028.17
1008.817	963.91
1008.978	2354.48
1009.139	-883.36
1009.301	484.69
1009.462	-2669.19
1009.623	841.03
1009.784	-1329.81
1009.945	169.3
1010.106	838.98
1010.267	181.59
1010.428	-1389.21
1010.589	-2208.39
1010.75	66.9
1010.911	-1208.98
1011.072	-2382.47
1011.233	736.59
1011.394	-504.48
1011.555	93.52
1011.716	478.54
1011.877	-1360.53
1012.037	345.42
1012.198	-1327.77
1012.359	376.14
1012.52	-1327.77
1012.68	-479.91
1012.841	120.15
1013.002	144.72
1013.163	-819.87
1013.323	218.45
1013.484	-1913.49
1013.644	-1520.28
1013.805	675.15
1013.966	-619.17
1014.126	2682.16
1014.287	-846.49
1014.447	-330.41
1014.608	1449.28
1014.768	-1372.82
1014.929	1133.89
1015.089	-1372.82
1015.249	230.74
1015.41	44.37
1015.57	931.14
1015.731	-2165.39
1015.891	-805.53
1016.051	607.56
1016.211	-471.72
1016.372	1422.66
1016.532	-815.77
1016.692	-369.32
1016.852	609.61
1017.013	-807.58
1017.173	-338.6
1017.333	-918.17
1017.493	-922.27
1017.653	-1397.4
1017.813	-2153.1
1017.973	-354.98
1018.133	-1733.26
1018.293	-1878.67
1018.453	-342.69
1018.613	-2093.71
1018.773	2006.33
1018.933	-381.6
1019.093	886.09
1019.253	-45.74
1019.413	1021.25
1019.573	-2101.9
1019.733	-459.43
1019.892	1957.18
1020.052	-596.64
1020.212	527.69
1020.372	105.81
1020.531	1527.1
1020.691	-213.67
1020.851	451.92
1021.01	159.06
1021.17	144.72
1021.33	-572.07
1021.489	-1706.64
1021.649	-119.46
1021.808	-82.6
1021.968	216.4
1022.127	-2810.5
1022.287	1887.54
1022.446	-668.32
1022.606	578.89
1022.765	-1454.74
1022.925	2579.76
1023.084	724.3
1023.244	1619.26
1023.403	-766.62
1023.562	-1229.46
1023.722	-561.83
1023.881	-643.74
1024.04	-283.3
1024.199	765.26
1024.359	109.91
1024.518	-2222.73
1024.677	-901.79
1024.836	-805.53
1024.995	769.35
1025.154	-950.94
1025.313	-166.57
1025.473	-1452.69
1025.632	-1393.3
1025.791	734.54
1025.95	-1469.08
1026.109	-754.34
1026.268	120.15
1026.427	1293.63
1026.586	1824.06
1026.744	-70.31
1026.903	6206.71
1027.062	-314.02
1027.221	1107.27
1027.38	292.18
1027.539	1137.99
1027.698	4654.35
1027.856	-1454.74
1028.015	628.04
1028.174	310.61
1028.333	187.73
1028.491	4007.19
1028.65	1580.35
1028.808	3753.24
1028.967	800.07
1029.126	554.32
1029.284	-1989.26
1029.443	220.5
1029.601	-905.88
1029.76	-1520.28
1029.918	-1372.82
1030.077	580.94
1030.235	2035
1030.394	-828.06
1030.552	1082.69
1030.711	2446.64
1030.869	-651.94
1031.027	-803.49
1031.186	-2585.22
1031.344	-1114.78
1031.502	-352.93
1031.661	1271.11
1031.819	1987.9
1031.977	1029.45
1032.135	-1770.13
1032.293	-963.23
1032.452	-1583.76
1032.61	3718.43
1032.768	-1745.55
1032.926	181.59
1033.084	3220.77
1033.242	-766.62
1033.4	-1667.73
1033.558	714.06
1033.716	-279.21
1033.874	-948.89
1034.032	-314.02
1034.19	-185
1034.348	2307.38
1034.506	-1888.91
1034.664	466.25
1034.822	-1761.94
1034.979	2282.8
1035.137	781.64
1035.295	-240.29
