Data from TmLN Sample 3_USBC44471_15-11-32-368.txt Node
Date: Wed Jul 29 15:11:32 MDT 2020
User: Montana Instruments
Spectrometer: USBC4447
Scans to average: 1
Trigger mode: 4
Integration Time (sec): 1.000000E1
Electric dark correction enabled: true
Boxcar width: 0
XAxis mode: Wavelengths
Number of Pixels in Spectrum: 3648
>>>>>Begin Spectral Data<<<<<
344.991	-5311.41
345.205	-5311.41
345.419	-5311.41
345.633	-5321.65
345.847	-5405.61
346.061	-304.12
346.275	1090.54
346.489	-1350.64
346.703	-115.71
346.917	-1766.37
347.131	1131.5
347.345	-891.89
347.559	-771.06
347.773	1481.71
347.986	-187.39
348.2	2780.12
348.414	-1096.69
348.628	-816.12
348.842	-1031.15
349.056	-1135.6
349.269	189.44
349.483	1215.47
349.697	1491.95
349.911	1252.33
350.125	-1045.49
350.338	449.53
350.552	918.51
350.766	-752.63
350.979	-1418.22
351.193	-543.74
351.407	5110.71
351.621	-392.19
351.834	-1448.94
352.048	2391
352.262	-402.43
352.475	3263.44
352.689	973.81
352.902	1504.23
353.116	58.37
353.33	-1534.95
353.543	-1061.87
353.757	371.71
353.971	160.77
354.184	287.74
354.398	-476.15
354.611	771.06
354.825	2763.73
355.038	1213.42
355.252	-181.25
355.465	-480.25
355.679	-1864.68
355.892	660.47
356.106	1102.83
356.319	7437.2
356.533	-541.69
356.746	-312.32
356.96	-881.65
357.173	-1391.59
357.386	1360.88
357.6	-818.16
357.813	-1053.68
358.027	-1934.31
358.24	-803.83
358.453	2474.97
358.667	-1375.21
358.88	1125.36
359.094	-1137.65
359.307	205.82
359.52	-424.95
359.733	2196.45
359.947	-2255.84
360.16	1223.66
360.373	1598.44
360.587	-1385.45
360.8	-500.73
361.013	-500.73
361.226	-867.31
361.44	2528.22
361.653	1551.34
361.866	-867.31
362.079	-2077.66
362.292	216.06
362.506	3484.62
362.719	336.89
362.932	2761.69
363.145	25.6
363.358	-1033.2
363.571	-1428.46
363.785	-343.03
363.998	1188.85
364.211	1731.56
364.424	-1221.61
364.637	1008.62
364.85	-699.38
365.063	1965.03
365.276	27.65
365.489	-1477.61
365.702	-257.02
365.915	287.74
366.128	-361.47
366.341	1938.4
366.554	3263.44
366.767	-814.07
366.98	-46.08
367.193	840.69
367.406	-1516.52
367.619	3718.09
367.832	1778.66
368.045	146.43
368.258	416.76
368.471	850.93
368.684	-2139.1
368.896	-1899.49
369.109	-80.89
369.322	-1111.02
369.535	-293.88
369.748	-1485.8
369.961	-719.86
370.173	-2821.08
370.386	-2522.07
370.599	2667.48
370.812	-594.93
371.025	-918.51
371.237	224.25
371.45	146.43
371.663	672.76
371.876	-570.36
372.088	4699.06
372.301	-873.46
372.514	-1590.25
372.726	455.67
372.939	-320.51
373.152	-553.98
373.364	805.88
373.577	3345.36
373.79	-637.94
374.002	-1010.67
374.215	-2692.05
374.428	-1979.36
374.64	1412.07
374.853	-1225.71
375.065	-465.91
375.278	3533.77
375.491	-5.12
375.703	1426.41
375.916	-1938.4
376.128	-691.19
376.341	-1659.88
376.553	701.43
376.766	-1342.44
376.978	-1782.76
377.191	713.72
377.403	-1866.72
377.616	3036.11
377.828	4002.75
378.04	-1342.44
378.253	-644.09
378.465	461.82
378.678	1125.36
378.89	-1354.73
379.103	-863.22
379.315	216.06
379.527	-1737.7
379.74	-566.26
379.952	-263.16
380.164	-1526.76
380.377	2038.75
380.589	-183.29
380.801	-19.46
381.014	1610.73
381.226	1057.78
381.438	54.27
381.65	-1399.79
381.863	-72.7
382.075	-996.34
382.287	-2188.25
382.499	-1043.44
382.712	-199.68
382.924	-23.55
383.136	-926.71
383.348	-3077.07
383.56	19.46
383.772	-1051.63
383.985	207.87
384.197	1291.24
384.409	-592.89
384.621	474.1
384.833	70.65
385.045	-54.27
385.257	-1399.79
385.469	-644.09
385.681	119.81
385.893	-103.42
386.105	-1082.35
386.318	-2403.29
386.53	-539.64
386.742	-3040.21
386.954	-2456.54
387.166	2761.69
387.378	-93.18
387.589	60.42
387.801	-3021.78
388.013	-1364.97
388.225	-1299.44
388.437	-2122.72
388.649	-1764.33
388.861	2589.66
389.073	1131.5
389.285	-648.18
389.497	799.73
389.709	1301.48
389.92	-1391.59
390.132	-988.14
390.344	-777.2
390.556	-660.47
390.768	343.03
390.98	-912.37
391.191	1569.77
391.403	701.43
391.615	171.01
391.827	-1213.42
392.038	-1037.3
392.25	-275.45
392.462	-2130.91
392.674	-1917.92
392.885	-1457.13
393.097	-2374.62
393.309	-756.72
393.52	1143.79
393.732	-1760.23
393.944	637.94
394.155	406.52
394.367	-1577.96
394.579	330.75
394.79	-1158.13
395.002	-160.77
395.213	-2687.96
395.425	-302.08
395.637	-1242.09
395.848	-2264.03
396.06	238.59
396.271	150.53
396.483	-1121.26
396.694	-390.14
396.906	-564.22
397.117	1223.66
397.329	1360.88
397.54	-857.07
397.752	-1909.73
397.963	-1250.28
398.175	130.05
398.386	1055.73
398.598	-836.6
398.809	-2218.97
399.02	846.84
399.232	652.28
399.443	-15.36
399.655	-1129.45
399.866	-1248.24
400.077	-523.26
400.289	1418.22
400.5	-48.13
400.711	852.98
400.923	-1424.36
401.134	-965.62
401.345	-1956.83
401.556	3380.17
401.768	-846.84
401.979	-1025.01
402.19	951.28
402.401	-517.11
402.613	244.73
402.824	-828.4
403.035	-2587.61
403.246	-1801.19
403.457	279.55
403.669	203.77
403.88	-1219.57
404.091	-2145.25
404.302	-1459.18
404.513	-648.18
404.724	-1051.63
404.935	-826.36
405.146	857.07
405.358	-1762.28
405.569	-1567.72
405.78	-2008.03
405.991	-895.99
406.202	-115.71
406.413	-351.23
406.624	-1514.47
406.835	-283.64
407.046	2810.84
407.257	-103.42
407.468	1074.16
407.679	-398.33
407.89	1702.89
408.101	1919.97
408.312	-465.91
408.522	-1946.59
408.733	347.13
408.944	-11.26
409.155	-648.18
409.366	947.19
409.577	-1899.49
409.788	-392.19
409.999	154.62
410.209	-836.6
410.42	-214.01
410.631	-1928.16
410.842	-211.96
411.053	4965.3
411.264	1078.26
411.474	-1203.18
411.685	-144.38
411.896	-1489.9
412.107	-2194.4
412.317	-1025.01
412.528	1713.13
412.739	-2169.82
412.949	-1338.35
413.16	-17.41
413.371	2051.04
413.581	1076.21
413.792	-650.23
414.003	3406.8
414.213	1764.33
414.424	-2116.58
414.635	-599.03
414.845	-1147.89
415.056	1215.47
415.266	-1825.76
415.477	-2544.6
415.687	635.89
415.898	1059.82
416.109	-1788.9
416.319	279.55
416.53	-2716.63
416.74	87.04
416.951	-1387.5
417.161	-17.41
417.372	173.05
417.582	517.11
417.792	1598.44
418.003	2325.47
418.213	-1043.44
418.424	443.39
418.634	-1616.87
418.844	1065.97
419.055	1764.33
419.265	-1197.04
419.476	492.54
419.686	-1010.67
419.896	-29.7
420.107	-1106.93
420.317	-791.54
420.527	76.8
420.738	-510.97
420.948	1121.26
421.158	1297.39
421.368	-670.71
421.579	-431.1
421.789	-1229.81
421.999	-3515.34
422.209	-523.26
422.419	-545.78
422.63	-263.16
422.84	-599.03
423.05	-1301.48
423.26	-1244.14
423.47	-207.87
423.681	-1932.26
423.891	793.59
424.101	1588.2
424.311	-867.31
424.521	-236.54
424.731	-908.27
424.941	-685.05
425.151	252.92
425.361	-1661.93
425.571	-2501.59
425.781	3812.29
425.991	726
426.201	1551.34
426.411	449.53
426.621	-1442.79
426.831	-2046.94
427.041	105.47
427.251	-449.53
427.461	1266.67
427.671	1016.82
427.881	-791.54
428.091	-152.57
428.301	2565.08
428.511	-164.86
428.721	-3175.38
428.93	-705.53
429.14	-1211.37
429.35	146.43
429.56	-1147.89
429.77	-424.95
429.98	-1281
430.189	-1010.67
430.399	2622.42
430.609	1381.35
430.819	355.32
431.029	-1496.04
431.238	-879.6
431.448	-736.24
431.658	-2630.62
431.867	-852.98
432.077	209.92
432.287	-1238
432.497	-1145.84
432.706	-95.23
432.916	-351.23
433.125	-2941.91
433.335	-1215.47
433.545	1254.38
433.754	3695.56
433.964	-1330.16
434.174	-900.08
434.383	2139.1
434.593	-1238
434.802	871.41
435.012	-1416.17
435.221	146.43
435.431	-693.24
435.64	-1266.67
435.85	-1285.1
436.059	164.86
436.269	736.24
436.478	-1111.02
436.688	-2335.71
436.897	-1045.49
437.107	-2311.13
437.316	27568.73
437.525	-3.07
437.735	-66.56
437.944	-15.36
438.154	2388.96
438.363	146.43
438.572	2632.66
438.782	166.91
438.991	-930.8
439.2	-236.54
439.41	-928.75
439.619	-1285.1
439.828	148.48
440.038	82.94
440.247	2137.06
440.456	-1555.43
440.665	476.15
440.875	920.56
441.084	279.55
441.293	-1702.89
441.502	-1358.83
441.711	-1100.78
441.92	490.49
442.13	-435.19
442.339	-1209.33
442.548	-513.02
442.757	1772.52
442.966	-2991.06
443.175	-1080.3
443.384	1387.5
443.593	1426.41
443.803	-2010.08
444.012	-269.31
444.221	-556.02
444.43	4391.87
444.639	427
444.848	2094.05
445.057	-1256.43
445.266	-1426.41
445.475	-2391
445.684	-1336.3
445.893	2229.21
446.102	197.63
446.311	-3169.23
446.52	-7.17
446.728	2692.05
446.937	-2724.82
447.146	-3638.22
447.355	228.35
447.564	-451.58
447.773	1461.23
447.982	1270.76
448.191	619.51
448.399	-1330.16
448.608	-867.31
448.817	-619.51
449.026	904.18
449.235	-1616.87
449.443	1063.92
449.652	-644.09
449.861	-1076.21
450.07	41.98
450.278	1700.84
450.487	-3042.26
450.696	-37.89
450.904	-1285.1
451.113	-879.6
451.322	476.15
451.53	-685.05
451.739	2931.67
451.948	-1219.57
452.156	218.11
452.365	4178.88
452.574	734.2
452.782	140.29
452.991	-762.87
453.199	848.88
453.408	271.36
453.616	-1534.95
453.825	1061.87
454.033	1096.69
454.242	3290.06
454.45	3386.32
454.659	379.9
454.867	15164.18
455.076	-1227.76
455.284	-977.91
455.493	-1743.85
455.701	-1219.57
455.91	2997.2
456.118	-895.99
456.326	-2063.33
456.535	2403.29
456.743	1197.04
456.951	-2102.24
457.16	1233.9
457.368	875.51
457.576	-1690.6
457.785	2595.8
457.993	-265.21
458.201	-1391.59
458.41	691.19
458.618	-955.38
458.826	-297.98
459.034	-2835.41
459.243	-1407.98
459.451	-7.17
459.659	-62.46
459.867	-607.22
460.075	-824.31
460.284	-142.33
460.492	-2212.83
460.7	-375.8
460.908	-764.92
461.116	-2642.9
461.324	-1328.11
461.532	-2253.79
461.741	-1860.58
461.949	-965.62
462.157	1987.55
462.365	-107.52
462.573	-138.24
462.781	439.29
462.989	-926.71
463.197	-1625.06
463.405	-2288.61
463.613	-99.33
463.821	-2528.22
464.029	-152.57
464.237	-1248.24
464.445	-650.23
464.653	875.51
464.861	-437.24
465.069	1240.05
465.276	4508.6
465.484	-791.54
465.692	-717.81
465.9	-793.59
466.108	-699.38
466.316	738.29
466.524	-705.53
466.731	-472.06
466.939	1999.84
467.147	-171.01
467.355	-50.18
467.563	1311.72
467.77	736.24
467.978	-2620.38
468.186	261.12
468.393	1819.62
468.601	-429.05
468.809	-1967.07
469.017	-953.33
469.224	-1915.87
469.432	1065.97
469.64	-1231.85
469.847	-1969.12
470.055	502.78
470.263	-1188.85
470.47	-1149.93
470.678	1160.17
470.885	-148.48
471.093	2560.98
471.3	709.62
471.508	-1575.91
471.716	-588.79
471.923	271.36
472.131	150.53
472.338	-1469.42
472.546	-887.79
472.753	2720.73
472.961	-1455.08
473.168	-293.88
473.375	-439.29
473.583	1020.91
473.79	-287.74
473.998	222.2
474.205	324.6
474.412	1778.66
474.62	-787.44
474.827	-1436.65
475.035	1412.07
475.242	-787.44
475.449	-1385.45
475.657	3957.7
475.864	3005.39
476.071	-58.37
476.278	-889.84
476.486	-666.61
476.693	238.59
476.9	254.97
477.107	232.44
477.315	-1033.2
477.522	29.7
477.729	1442.79
477.936	-726
478.143	-1631.21
478.351	1358.83
478.558	-1186.8
478.765	-560.12
478.972	-494.58
479.179	592.89
479.386	809.97
479.593	912.37
479.8	994.29
480.007	-1827.81
480.215	-316.41
480.422	943.09
480.629	-2331.61
480.836	1053.68
481.043	2999.25
481.25	-705.53
481.457	-1491.95
481.664	-646.13
481.871	732.15
482.078	-1446.89
482.284	-1491.95
482.491	2114.53
482.698	1539.05
482.905	-1078.26
483.112	-2343.9
483.319	95.23
483.526	99.33
483.733	2298.84
483.94	-2548.7
484.146	-1563.62
484.353	41.98
484.56	-814.07
484.767	-3242.96
484.974	2126.82
485.18	1602.54
485.387	-537.59
485.594	-1283.05
485.801	1844.2
486.007	50.18
486.214	-857.07
486.421	-1782.76
486.627	-297.98
486.834	891.89
487.041	463.86
487.247	-1309.68
487.454	-1444.84
487.661	283.64
487.867	562.17
488.074	-1670.12
488.281	994.29
488.487	-283.64
488.694	-994.29
488.9	-406.52
489.107	-1092.59
489.313	-834.55
489.52	-545.78
489.726	-1608.68
489.933	2917.33
490.139	2819.03
490.346	-363.51
490.552	252.92
490.759	-402.43
490.965	84.99
491.172	16245.51
491.378	-457.72
491.584	72.7
491.791	1643.49
491.997	-230.4
492.204	-498.68
492.41	3023.83
492.616	-1729.51
492.823	-1547.24
493.029	-1170.41
493.235	2251.74
493.442	-33.79
493.648	-472.06
493.854	-549.88
494.06	4674.49
494.267	693.24
494.473	-928.75
494.679	-1420.27
494.885	396.28
495.091	3208.14
495.298	766.96
495.504	-2489.31
495.71	-328.7
495.916	-1819.62
496.122	2524.12
496.328	687.09
496.535	652.28
496.741	-564.22
496.947	623.61
497.153	-431.1
497.359	498.68
497.565	625.65
497.771	1543.14
497.977	-121.85
498.183	-756.72
498.389	844.79
498.595	-1625.06
498.801	494.58
499.007	799.73
499.213	-336.89
499.419	-705.53
499.625	-31.74
499.831	3142.61
500.037	-551.93
500.243	-1567.72
500.448	-691.19
500.654	1043.44
500.86	2038.75
501.066	-662.52
501.272	2575.32
501.478	-1948.64
501.684	-596.98
501.889	-1819.62
502.095	-1510.38
502.301	-361.47
502.507	713.72
502.712	-531.45
502.918	-1100.78
503.124	-1004.53
503.33	871.41
503.535	-850.93
503.741	222.2
503.947	-408.57
504.152	-240.64
504.358	-2292.7
504.564	-523.26
504.769	492.54
504.975	4500.41
505.181	-60.42
505.386	-1780.71
505.592	-781.3
505.797	908.27
506.003	-2692.05
506.208	2022.37
506.414	-472.06
506.619	-35.84
506.825	590.84
507.03	-2010.08
507.236	-1092.59
507.441	-60.42
507.647	-852.98
507.852	37.89
508.058	1233.9
508.263	932.85
508.469	-687.09
508.674	-2225.12
508.879	-465.91
509.085	-252.92
509.29	-1754.09
509.495	-1260.52
509.701	-969.71
509.906	844.79
510.111	-543.74
510.317	943.09
510.522	234.49
510.727	2061.28
510.933	-803.83
511.138	312.32
511.343	-816.12
511.548	689.14
511.754	-1395.69
511.959	2399.2
512.164	9.22
512.369	3462.09
512.574	3425.23
512.779	-1483.75
512.985	-568.31
513.19	986.1
513.395	1.02
513.6	-1039.34
513.805	-306.17
514.01	1924.07
514.215	-316.41
514.42	2747.35
514.625	-558.07
514.83	2446.3
515.035	-179.2
515.24	-54.27
515.445	2937.81
515.65	1958.88
515.855	330.75
516.06	-377.85
516.265	611.32
516.47	1295.34
516.675	226.3
516.88	-2298.84
517.085	125.95
517.29	-533.5
517.495	400.38
517.7	1790.95
517.904	-171.01
518.109	596.98
518.314	-549.88
518.519	596.98
518.724	685.05
518.928	601.08
519.133	-553.98
519.338	236.54
519.543	322.56
519.747	932.85
519.952	2972.63
520.157	6288.29
520.362	771.06
520.566	2765.78
520.771	-1821.67
520.976	1137.65
521.18	3828.68
521.385	-873.46
521.59	-961.52
521.794	396.28
521.999	2218.97
522.203	-951.28
522.408	-404.47
522.612	-912.37
522.817	691.19
523.022	2290.65
523.226	-136.19
523.431	-623.61
523.635	123.9
523.84	2206.69
524.044	-779.25
524.249	1821.67
524.453	2896.85
524.657	226.3
524.862	6587.29
525.066	-959.47
525.271	-257.02
525.475	1254.38
525.679	29.7
525.884	-1854.44
526.088	1295.34
526.292	2589.66
526.497	308.22
526.701	-906.23
526.905	-353.27
527.11	371.71
527.314	-244.73
527.518	3482.57
527.722	-797.68
527.927	1262.57
528.131	-1975.27
528.335	5405.61
528.539	1846.24
528.744	2712.53
528.948	-1645.54
529.152	-1106.93
529.356	2526.17
529.56	578.55
529.764	46.08
529.968	109.57
530.173	7768.97
530.377	6398.88
530.581	-1518.57
530.785	1741.8
530.989	-459.77
531.193	398.33
531.397	-1276.91
531.601	375.8
531.805	1805.28
532.009	1590.25
532.213	-11.26
532.417	627.7
532.621	2038.75
532.825	3341.26
533.029	119.81
533.233	590.84
533.436	711.67
533.64	281.6
533.844	1776.61
534.048	-580.6
534.252	818.16
534.456	3515.34
534.66	2452.44
534.863	44.03
535.067	246.78
535.271	2556.89
535.475	-336.89
535.679	2311.13
535.882	3038.16
536.086	2153.44
536.29	2300.89
536.493	695.29
536.697	1504.23
536.901	957.43
537.104	2280.41
537.308	1119.21
537.512	1383.4
537.715	3812.29
537.919	1846.24
538.123	2048.99
538.326	1432.55
538.53	2743.25
538.733	3718.09
538.937	2485.21
539.141	1950.69
539.344	3210.19
539.548	2264.03
539.751	4959.16
539.955	5557.16
540.158	7383.95
540.362	5032.88
540.565	3097.55
540.768	4465.6
540.972	10802.01
541.175	8942.46
541.379	6855.58
541.582	6347.68
541.785	7969.67
541.989	9675.63
542.192	5532.59
542.396	6480.8
542.599	8569.73
542.802	9145.2
543.005	7635.85
543.209	6476.7
543.412	7897.99
543.615	8098.69
543.819	8020.87
544.022	6597.53
544.225	7758.73
544.428	7564.17
544.631	10447.71
544.835	7400.34
545.038	6464.41
545.241	6646.68
545.444	9573.23
545.647	7943.05
545.85	7168.91
546.054	5655.47
546.257	3972.04
546.46	6738.84
546.663	6187.94
546.866	6675.35
547.069	6767.51
547.272	5305.26
547.475	6009.76
547.678	5182.38
547.881	4099.01
548.084	4656.06
548.287	5047.22
548.49	2522.07
548.693	4076.48
548.896	1696.74
549.099	4574.14
549.302	2573.27
549.505	2118.62
549.707	1864.68
549.91	4189.12
550.113	1956.83
550.316	1852.39
550.519	4271.04
550.722	4242.37
550.924	1819.62
551.127	2931.67
551.33	2116.58
551.533	1696.74
551.736	1283.05
551.938	1162.22
552.141	2683.86
552.344	787.44
552.546	2976.72
552.749	1661.93
552.952	1844.2
553.154	1799.14
553.357	1903.59
553.56	1491.95
553.762	7046.04
553.965	5737.38
554.168	1942.5
554.37	3900.36
554.573	2687.96
554.775	4260.8
554.978	3269.58
555.18	443.39
555.383	1092.59
555.585	5247.92
555.788	2685.91
555.99	1330.16
556.193	1870.82
556.395	3097.55
556.598	906.23
556.8	1502.19
557.003	2036.7
557.205	5749.67
557.407	1549.29
557.61	2079.71
557.812	2257.89
558.015	4371.39
558.217	1573.86
558.419	2216.93
558.622	3797.96
558.824	2409.44
559.026	885.75
559.228	1594.34
559.431	3175.38
559.633	3165.14
559.835	1649.64
560.037	3150.8
560.24	5041.08
560.442	3957.7
560.644	1420.27
560.846	3138.51
561.048	3699.66
561.25	4498.36
561.453	3091.41
561.655	2094.05
561.857	2538.46
562.059	2151.39
562.261	4735.93
562.463	2882.52
562.665	2610.14
562.867	3638.22
563.069	3611.59
563.271	4572.09
563.473	3464.14
563.675	3165.14
563.877	3363.79
564.079	2167.77
564.281	5231.54
564.483	3679.18
564.685	3038.16
564.887	2407.39
565.089	4254.66
565.291	4588.47
565.493	1688.55
565.694	5286.83
565.896	1893.35
566.098	4137.92
566.3	5075.89
566.502	2655.19
566.704	5649.32
566.905	613.37
567.107	1469.42
567.309	1225.71
567.511	4164.54
567.712	1424.36
567.914	2454.49
568.116	609.27
568.317	4631.48
568.519	3150.8
568.721	209.92
568.922	-1.02
569.124	2522.07
569.326	5016.5
569.527	2442.2
569.729	1813.48
569.93	6687.64
570.132	1799.14
570.334	4234.18
570.535	904.18
570.737	1829.86
570.938	6134.69
571.14	2085.86
571.341	3595.21
571.543	6994.84
571.744	2630.62
571.946	4361.15
572.147	1338.35
572.348	5585.83
572.55	4240.32
572.751	4910.01
572.953	2149.34
573.154	4379.58
573.355	6515.61
573.557	9079.67
573.758	3451.85
573.959	3376.08
574.161	4967.35
574.362	5278.64
574.563	7252.88
574.765	5780.39
574.966	6079.4
575.167	2405.34
575.368	5415.85
575.569	3728.33
575.771	6003.62
575.972	2980.82
576.173	4012.99
576.374	5366.7
576.575	4881.33
576.776	1375.21
576.978	2509.79
577.179	3206.1
577.38	4099.01
577.581	2491.35
577.782	3476.43
577.983	4928.44
578.184	5782.44
578.385	3326.93
578.586	4029.38
578.787	2479.07
578.988	4084.67
579.189	1696.74
579.39	2587.61
579.591	3550.15
579.792	2722.77
579.993	4715.45
580.194	4756.41
580.395	5856.17
580.596	3853.25
580.796	5008.31
580.997	2849.75
581.198	3507.15
581.399	5548.97
581.6	6194.08
581.801	2851.8
582.001	6759.32
582.202	2188.25
582.403	1434.6
582.604	7654.28
582.804	3517.39
583.005	4010.95
583.206	787.44
583.407	5442.48
583.607	3294.16
583.808	2894.8
584.009	4760.5
584.209	4533.18
584.41	1573.86
584.61	3376.08
584.811	3068.88
585.012	2528.22
585.212	1737.7
585.413	3515.34
585.613	3275.73
585.814	1973.22
586.014	4893.62
586.215	2642.9
586.415	3191.76
586.616	1940.45
586.816	2517.98
587.017	4815.8
587.217	1745.89
587.418	6013.86
587.618	2534.36
587.819	2565.08
588.019	1143.79
588.219	525.3
588.42	2911.19
588.62	877.55
588.82	887.79
589.021	1410.03
589.221	3320.78
589.421	1467.37
589.622	3931.08
589.822	1336.3
590.022	5321.65
590.222	3562.44
590.423	1758.18
590.623	869.36
590.823	2712.53
591.023	2638.81
591.223	789.49
591.423	5673.9
591.624	2845.65
591.824	2327.52
592.024	1111.02
592.224	2075.62
592.424	5323.69
592.624	2276.32
592.824	2573.27
593.024	1944.55
593.224	4907.96
593.424	4645.82
593.624	2282.46
593.824	2253.79
594.024	2880.47
594.224	1008.62
594.424	2417.63
594.624	402.43
594.824	1801.19
595.024	1240.05
595.224	2212.83
595.424	574.46
595.624	553.98
595.824	1061.87
596.023	3722.18
596.223	3781.57
596.423	1467.37
596.623	2767.83
596.823	-195.58
597.023	-769.01
597.222	6427.55
597.422	836.6
597.622	-240.64
597.822	930.8
598.021	2315.23
598.221	746.48
598.421	-504.82
598.62	1504.23
598.82	470.01
599.02	4654.01
599.219	4260.8
599.419	2270.17
599.618	570.36
599.818	2532.31
600.018	-594.93
600.217	721.91
600.417	3994.56
600.616	1354.73
600.816	1762.28
601.015	1790.95
601.215	887.79
601.414	523.26
601.614	642.04
601.813	-695.29
602.013	2012.13
602.212	1324.01
602.412	281.6
602.611	2491.35
602.81	1924.07
603.01	3134.42
603.209	1496.04
603.408	-1170.41
603.608	2460.63
603.807	1041.39
604.006	5864.36
604.206	74.75
604.405	1231.85
604.604	1854.44
604.803	1375.21
605.003	295.93
605.202	103.42
605.401	848.88
605.6	2214.88
605.8	443.39
605.999	402.43
606.198	1692.65
606.397	2120.67
606.596	717.81
606.795	2636.76
606.994	3570.63
607.193	656.37
607.393	3607.5
607.592	3836.87
607.791	1590.25
607.99	3691.46
608.189	3791.81
608.388	4699.06
608.587	3955.65
608.786	2354.14
608.985	607.22
609.184	2159.58
609.382	3507.15
609.581	2700.25
609.78	4815.8
609.979	4160.45
610.178	2780.12
610.377	2487.26
610.576	549.88
610.775	3163.09
610.973	3206.1
611.172	3847.11
611.371	2655.19
611.57	2135.01
611.769	4881.33
611.967	1524.71
612.166	4469.69
612.365	2651.1
612.564	2876.37
612.762	3288.01
612.961	3453.9
613.16	2081.76
613.358	3015.63
613.557	41.98
613.756	2952.15
613.954	4207.55
614.153	1123.31
614.351	1229.81
614.55	388.09
614.749	3414.99
614.947	1881.06
615.146	764.92
615.344	2442.2
615.543	68.61
615.741	2282.46
615.94	2882.52
616.138	713.72
616.337	2986.96
616.535	1035.25
616.733	-123.9
616.932	1301.48
617.13	3683.27
617.329	4993.97
617.527	-1039.34
617.725	-1541.1
617.924	-1031.15
618.122	287.74
618.32	-777.2
618.519	-1418.22
618.717	2319.32
618.915	2124.77
619.114	1151.98
619.312	35.84
619.51	517.11
619.708	2184.16
619.906	-576.5
620.105	-482.3
620.303	-304.12
620.501	3902.4
620.699	-1641.45
620.897	947.19
621.095	1788.9
621.293	-973.81
621.492	1795.04
621.69	7.17
621.888	1039.34
622.086	3228.62
622.284	1041.39
622.482	295.93
622.68	730.1
622.878	185.34
623.076	-37.89
623.274	138.24
623.472	486.39
623.67	1299.44
623.868	-2329.56
624.065	1029.1
624.263	1446.89
624.461	953.33
624.659	-719.86
624.857	3275.73
625.055	2454.49
625.253	-328.7
625.45	-179.2
625.648	82.94
625.846	197.63
626.044	209.92
626.242	420.86
626.439	2032.61
626.637	848.88
626.835	-144.38
627.032	1989.6
627.23	-1485.8
627.428	3224.53
627.626	1426.41
627.823	402.43
628.021	2636.76
628.218	1979.36
628.416	1297.39
628.614	-1092.59
628.811	-1514.47
629.009	-584.7
629.206	-431.1
629.404	-1096.69
629.601	279.55
629.799	-1815.52
629.996	3304.4
630.194	1049.58
630.391	902.13
630.589	-629.75
630.786	1907.68
630.984	347.13
631.181	-2143.2
631.378	-633.85
631.576	1887.2
631.773	-1965.03
631.97	-1324.01
632.168	-1698.79
632.365	109.57
632.562	416.76
632.76	-979.95
632.957	383.99
633.154	115.71
633.352	539.64
633.549	-691.19
633.746	2155.49
633.943	769.01
634.14	-789.49
634.338	2210.78
634.535	-513.02
634.732	-183.29
634.929	2771.93
635.126	660.47
635.323	41.98
635.52	2323.42
635.717	443.39
635.915	-441.34
636.112	-76.8
636.309	-1762.28
636.506	-656.37
636.703	-2462.68
636.9	-433.15
637.097	5084.08
637.294	220.16
637.491	-1096.69
637.688	2069.47
637.884	-1076.21
638.081	-560.12
638.278	-76.8
638.475	-437.24
638.672	-631.8
638.869	-750.58
639.066	5835.69
639.263	781.3
639.459	769.01
639.656	-2372.57
639.853	-1602.54
640.05	12821.31
640.246	2036.7
640.443	-248.83
640.64	-2851.8
640.837	279.55
641.033	-1725.41
641.23	-218.11
641.427	-244.73
641.623	484.34
641.82	-713.72
642.017	-1274.86
642.213	-467.96
642.41	-500.73
642.606	1031.15
642.803	1231.85
643	357.37
643.196	-1391.59
643.393	2089.95
643.589	291.84
643.786	-1170.41
643.982	4336.57
644.179	1557.48
644.375	-1002.48
644.571	-338.94
644.768	-1469.42
644.964	-257.02
645.161	-291.84
645.357	2759.64
645.553	519.16
645.75	2141.15
645.946	121.85
646.143	-52.22
646.339	355.32
646.535	482.3
646.731	1188.85
646.928	-250.88
647.124	-1756.13
647.32	2284.51
647.516	1711.08
647.713	-1330.16
647.909	-130.05
648.105	-486.39
648.301	-2638.81
648.497	433.15
648.693	-537.59
648.89	-510.97
649.086	-164.86
649.282	-1000.43
649.478	-629.75
649.674	308.22
649.87	1893.35
650.066	1223.66
650.262	-1123.31
650.458	1758.18
650.654	-1379.31
650.85	175.1
651.046	-517.11
651.242	-162.81
651.438	119.81
651.634	-1682.41
651.83	-855.03
652.026	457.72
652.222	-304.12
652.417	-289.79
652.613	1143.79
652.809	-1623.02
653.005	-971.76
653.201	2257.89
653.397	-1102.83
653.592	-177.15
653.788	-1233.9
653.984	1569.77
654.18	4699.06
654.375	-855.03
654.571	-242.68
654.767	-211.96
654.962	-1039.34
655.158	-2427.87
655.354	-764.92
655.549	1244.14
655.745	1444.84
655.941	3531.72
656.136	-879.6
656.332	-1530.86
656.527	-222.2
656.723	1475.56
656.918	-2053.09
657.114	-715.77
657.309	-334.84
657.505	1045.49
657.7	1264.62
657.896	-1305.58
658.091	-1293.29
658.287	-719.86
658.482	-2255.84
658.678	-1055.73
658.873	240.64
659.068	3279.82
659.264	-556.02
659.459	36485.59
659.654	547.83
659.85	2477.02
660.045	-1623.02
660.24	1784.8
660.436	5243.82
660.631	-218.11
660.826	1969.12
661.021	263.16
661.217	2343.9
661.412	-861.17
661.607	-2284.51
661.802	-506.87
661.997	-482.3
662.192	537.59
662.388	-2692.05
662.583	-654.33
662.778	267.26
662.973	-1752.04
663.168	-2649.05
663.363	-943.09
663.558	3826.63
663.753	1156.08
663.948	-2036.7
664.143	-1729.51
664.338	119.81
664.533	758.77
664.728	-613.37
664.923	-1256.43
665.118	-7.17
665.313	-1025.01
665.508	1225.71
665.703	1115.12
665.897	1002.48
666.092	377.85
666.287	-142.33
666.482	-732.15
666.677	1813.48
666.872	1512.42
667.066	-902.13
667.261	-1272.81
667.456	117.76
667.651	1518.57
667.845	1674.21
668.04	529.4
668.235	-1477.61
668.429	1029.1
668.624	44.03
668.819	-740.34
669.013	-1719.27
669.208	828.4
669.402	-1610.73
669.597	-103.42
669.792	-824.31
669.986	2651.1
670.181	-2132.96
670.375	248.83
670.57	-1803.24
670.764	-898.03
670.959	-494.58
671.153	54.27
671.348	-308.22
671.542	2397.15
671.737	-2012.13
671.931	-2593.75
672.125	504.82
672.32	1031.15
672.514	1186.8
672.709	-1633.26
672.903	-218.11
673.097	-680.95
673.291	-1276.91
673.486	1311.72
673.68	-121.85
673.874	-957.43
674.069	-1158.13
674.263	627.7
674.457	1412.07
674.651	910.32
674.845	-717.81
675.04	3722.18
675.234	-1285.1
675.428	-308.22
675.622	-1315.82
675.816	-1725.41
676.01	-781.3
676.204	-187.39
676.398	111.61
676.592	-697.33
676.787	-883.7
676.981	46.08
677.175	54.27
677.369	-3365.84
677.563	-31.74
677.757	-289.79
677.95	-1330.16
678.144	-2745.3
678.338	-1094.64
678.532	773.11
678.726	-2544.6
678.92	3048.4
679.114	107.52
679.308	27.65
679.502	-3836.87
679.695	-2184.16
679.889	-594.93
680.083	-2673.62
680.277	-2300.89
680.471	-314.36
680.664	-1432.55
680.858	345.08
681.052	-263.16
681.245	-1045.49
681.439	674.81
681.633	-979.95
681.826	-463.86
682.02	-979.95
682.214	791.54
682.407	-1203.18
682.601	-887.79
682.795	-336.89
682.988	-508.92
683.182	-1078.26
683.375	-498.68
683.569	-713.72
683.762	529.4
683.956	1840.1
684.149	1836
684.343	1876.96
684.536	-1256.43
684.73	33.79
684.923	-2370.52
685.116	-2044.9
685.31	2247.65
685.503	699.38
685.696	-257.02
685.89	926.71
686.083	-1659.88
686.276	-990.19
686.47	78.85
686.663	-635.89
686.856	-400.38
687.05	1262.57
687.243	-709.62
687.436	1246.19
687.629	1725.41
687.822	537.59
688.016	-1016.82
688.209	-1051.63
688.402	478.2
688.595	-89.09
688.788	-2087.9
688.981	-1799.14
689.174	2716.63
689.367	181.25
689.561	-740.34
689.754	-2554.84
689.947	-551.93
690.14	7.17
690.333	-3259.34
690.526	-756.72
690.719	1600.49
690.912	2003.94
691.104	191.49
691.297	-377.85
691.49	-9.22
691.683	-920.56
691.876	-2892.76
692.069	2679.77
692.262	-181.25
692.455	345.08
692.647	-404.47
692.84	-1713.13
693.033	443.39
693.226	529.4
693.419	-1158.13
693.611	-664.57
693.804	107.52
693.997	455.67
694.189	-453.63
694.382	-1399.79
694.575	2872.28
694.767	-107.52
694.96	-1477.61
695.153	-252.92
695.345	222.2
695.538	1741.8
695.731	388.09
695.923	-674.81
696.116	240.64
696.308	1483.75
696.501	95.23
696.693	1735.65
696.886	-1025.01
697.078	-2128.86
697.271	480.25
697.463	631.8
697.655	-179.2
697.848	156.67
698.04	-893.94
698.233	-2186.21
698.425	-746.48
698.617	1305.58
698.81	-1424.36
699.002	-965.62
699.194	1752.04
699.387	834.55
699.579	-1268.72
699.771	-1948.64
699.963	-2829.27
700.156	-1870.82
700.348	992.24
700.54	154.62
700.732	-1100.78
700.924	-695.29
701.117	-883.7
701.309	-1065.97
701.501	-2157.54
701.693	4215.74
701.885	-982
702.077	1178.61
702.269	349.18
702.461	1960.93
702.653	91.13
702.845	-777.2
703.037	373.75
703.229	1965.03
703.421	-982
703.613	-1350.64
703.805	3339.21
703.997	480.25
704.189	1008.62
704.381	-879.6
704.573	3728.33
704.765	-773.11
704.957	1512.42
705.148	80.89
705.34	-1072.11
705.532	-33.79
705.724	-1158.13
705.916	-1762.28
706.107	1741.8
706.299	351.23
706.491	2016.23
706.682	1477.61
706.874	-695.29
707.066	-343.03
707.258	-1446.89
707.449	-424.95
707.641	5606.31
707.832	-7.17
708.024	-834.55
708.216	-347.13
708.407	834.55
708.599	-652.28
708.79	1772.52
708.982	-1483.75
709.173	-513.02
709.365	-1119.21
709.556	-306.17
709.748	-496.63
709.939	398.33
710.131	556.02
710.322	-2171.87
710.514	2509.79
710.705	-588.79
710.896	558.07
711.088	291.84
711.279	599.03
711.47	1817.57
711.662	1199.09
711.853	-1387.5
712.044	-2304.99
712.236	271.36
712.427	-25.6
712.618	-2470.87
712.809	-1268.72
713	-455.67
713.192	1414.12
713.383	-791.54
713.574	146.43
713.765	214.01
713.956	-904.18
714.147	1922.02
714.338	-1694.69
714.53	1569.77
714.721	2421.72
714.912	-1176.56
715.103	-2165.73
715.294	617.46
715.485	1227.76
715.676	-2382.81
715.867	-2761.69
716.058	-699.38
716.249	1436.65
716.44	-199.68
716.63	-1717.22
716.821	-316.41
717.012	1410.03
717.203	-1307.63
717.394	-787.44
717.585	-2337.76
717.776	-748.53
717.966	-1219.57
718.157	-1588.2
718.348	451.58
718.539	-105.47
718.73	1008.62
718.92	2208.73
719.111	-1031.15
719.302	371.71
719.492	-1076.21
719.683	654.33
719.874	-1199.09
720.064	3908.55
720.255	-2155.49
720.446	-404.47
720.636	1596.39
720.827	1311.72
721.017	412.67
721.208	-623.61
721.398	-1041.39
721.589	924.66
721.779	289.79
721.97	-3470.28
722.16	-1463.27
722.351	-2286.56
722.541	-1147.89
722.732	1242.09
722.922	1037.3
723.112	1543.14
723.303	-1862.63
723.493	-1244.14
723.683	1127.41
723.874	2255.84
724.064	418.81
724.254	1960.93
724.445	-908.27
724.635	2145.25
724.825	-2982.87
725.015	-877.55
725.206	-685.05
725.396	1401.83
725.586	-1358.83
725.776	867.31
725.966	3632.07
726.157	1172.46
726.347	1950.69
726.537	-228.35
726.727	2063.33
726.917	-1291.24
727.107	-1027.06
727.297	-2778.07
727.487	1950.69
727.677	-1121.26
727.867	234.49
728.057	-312.32
728.247	414.71
728.437	709.62
728.627	-857.07
728.817	-830.45
729.007	478.2
729.197	771.06
729.387	-541.69
729.576	-490.49
729.766	1565.67
729.956	-334.84
730.146	-979.95
730.336	-1919.97
730.525	-416.76
730.715	-1156.08
730.905	-72.7
731.095	-850.93
731.284	785.4
731.474	748.53
731.664	-889.84
731.853	-2540.51
732.043	-1367.02
732.233	-1838.05
732.422	1340.4
732.612	-1600.49
732.802	404.47
732.991	166.91
733.181	-2917.33
733.37	-1600.49
733.56	-830.45
733.749	863.22
733.939	-2196.45
734.128	1033.2
734.318	2061.28
734.507	-713.72
734.697	-2532.31
734.886	1324.01
735.076	-1680.36
735.265	1790.95
735.454	322.56
735.644	-1778.66
735.833	-1350.64
736.022	-105.47
736.212	-984.05
736.401	-678.9
736.59	951.28
736.779	-601.08
736.969	-2225.12
737.158	271.36
737.347	-1537
737.536	-216.06
737.726	-1518.57
737.915	1205.23
738.104	726
738.293	-664.57
738.482	-101.37
738.671	-1258.48
738.86	-2360.28
739.049	973.81
739.238	-1348.59
739.427	-842.74
739.616	-1909.73
739.806	-1721.32
739.995	-3005.39
740.183	-2014.18
740.372	-91.13
740.561	-701.43
740.75	-3732.42
740.939	93.18
741.128	234.49
741.317	1025.01
741.506	-1055.73
741.695	130.05
741.884	846.84
742.072	1668.07
742.261	-242.68
742.45	-496.63
742.639	527.35
742.828	179.2
743.016	-850.93
743.205	-1776.61
743.394	-1356.78
743.582	1358.83
743.771	27.65
743.96	773.11
744.148	125.95
744.337	37.89
744.526	568.31
744.714	-873.46
744.903	3902.4
745.091	-105.47
745.28	2055.14
745.468	986.1
745.657	707.57
745.845	553.98
746.034	-625.65
746.222	177.15
746.411	599.03
746.599	988.14
746.788	742.39
746.976	-635.89
747.165	125.95
747.353	568.31
747.541	4721.59
747.73	-1586.15
747.918	1971.17
748.106	1580.01
748.295	2374.62
748.483	1383.4
748.671	1076.21
748.859	785.4
749.048	2647
749.236	611.32
749.424	285.69
749.612	2507.74
749.8	652.28
749.989	938.99
750.177	1567.72
750.365	2012.13
750.553	2186.21
750.741	-805.88
750.929	5231.54
751.117	967.67
751.305	1747.94
751.493	750.58
751.681	-152.57
751.869	1459.18
752.057	2493.4
752.245	615.41
752.433	2946
752.621	1797.09
752.809	3161.04
752.997	2950.1
753.185	2434.01
753.373	1577.96
753.56	1328.11
753.748	2589.66
753.936	1739.75
754.124	2388.96
754.312	1164.27
754.499	3994.56
754.687	2907.09
754.875	3273.68
755.063	1387.5
755.25	3310.54
755.438	4268.99
755.626	3222.48
755.813	723.96
756.001	3038.16
756.189	1278.96
756.376	1530.86
756.564	2206.69
756.751	4154.3
756.939	875.51
757.127	4557.75
757.314	2171.87
757.502	805.88
757.689	4162.5
757.877	3455.95
758.064	3462.09
758.251	1330.16
758.439	3552.2
758.626	4860.85
758.814	1676.26
759.001	4303.81
759.188	4088.77
759.376	441.34
759.563	3494.86
759.75	3734.47
759.938	1754.09
760.125	1799.14
760.312	2434.01
760.5	2374.62
760.687	3326.93
760.874	1555.43
761.061	3687.37
761.248	-50.18
761.436	6185.89
761.623	2079.71
761.81	2837.46
761.997	3783.62
762.184	2067.42
762.371	1772.52
762.558	2393.05
762.745	4373.44
762.932	2737.11
763.119	3085.26
763.306	2786.26
763.493	2851.8
763.68	3265.49
763.867	4402.11
764.054	1328.11
764.241	2038.75
764.428	4350.91
764.615	2601.94
764.802	2395.1
764.989	1858.53
765.176	3081.17
765.362	3718.09
765.549	2087.9
765.736	9929.58
765.923	4531.13
766.11	4185.02
766.296	2513.88
766.483	433.15
766.67	3015.63
766.857	3863.49
767.043	1741.8
767.23	3113.94
767.417	4699.06
767.603	3621.83
767.79	2315.23
767.976	5241.78
768.163	4592.57
768.35	3589.07
768.536	2462.68
768.723	2493.4
768.909	4735.93
769.096	5305.26
769.282	2833.36
769.469	2294.75
769.655	5624.75
769.842	3668.94
770.028	1496.04
770.214	3136.46
770.401	3245.01
770.587	2194.4
770.774	60.42
770.96	29.7
771.146	3455.95
771.333	3560.39
771.519	2225.12
771.705	3288.01
771.891	1944.55
772.078	7846.79
772.264	3924.93
772.45	2438.11
772.636	3052.5
772.822	2415.58
773.009	6437.79
773.195	3793.86
773.381	3988.42
773.567	4258.75
773.753	2081.76
773.939	1334.25
774.125	1270.76
774.311	2986.96
774.497	1543.14
774.683	2094.05
774.869	4588.47
775.055	6321.06
775.241	2196.45
775.427	3627.98
775.613	2051.04
775.799	5383.09
775.985	1866.72
776.171	3163.09
776.357	3210.19
776.543	3382.22
776.729	2520.03
776.914	3247.05
777.1	4688.82
777.286	7324.56
777.472	3214.29
777.657	2653.14
777.843	6169.51
778.029	6118.31
778.215	4260.8
778.4	3285.97
778.586	6495.13
778.772	5059.51
778.957	4617.15
779.143	2292.7
779.329	3654.6
779.514	2495.45
779.7	3625.93
779.885	1485.8
780.071	4252.61
780.256	4234.18
780.442	3838.92
780.627	1717.22
780.813	5090.23
780.998	5548.97
781.184	4729.78
781.369	2556.89
781.555	5014.45
781.74	3744.71
781.925	5948.33
782.111	3032.02
782.296	4002.75
782.481	4549.56
782.667	3953.6
782.852	5227.44
783.037	3699.66
783.223	3728.33
783.408	3857.35
783.593	5112.75
783.778	3083.22
783.963	4760.5
784.149	5252.02
784.334	3992.52
784.519	4170.69
784.704	2673.62
784.889	4484.03
785.074	3089.36
785.259	3949.51
785.444	6820.76
785.629	2986.96
785.814	2302.94
785.999	4076.48
786.184	7334.8
786.369	3761.09
786.554	2294.75
786.739	5893.03
786.924	5512.11
787.109	4875.19
787.294	6402.97
787.479	6325.15
787.664	5442.48
787.849	6820.76
788.034	6607.77
788.218	5989.28
788.403	6509.47
788.588	8160.13
788.773	7897.99
788.957	6857.62
789.142	9749.36
789.327	9386.86
789.512	8663.93
789.696	13081.4
789.881	14185.26
790.066	11060.06
790.25	14670.62
790.435	12485.44
790.619	14828.32
790.804	14619.42
790.989	14156.58
791.173	17875.7
791.358	16155.4
791.542	14680.86
791.727	15639.31
791.911	15856.4
792.096	15418.13
792.28	16220.94
792.465	16534.28
792.649	16640.77
792.833	18461.41
793.018	16988.92
793.202	18629.35
793.386	20421.32
793.571	19540.69
793.755	18606.82
793.939	17124.09
794.124	18379.5
794.308	18690.79
794.492	18182.89
794.676	17279.74
794.861	18236.14
795.045	19196.64
795.229	16390.92
795.413	18971.36
795.597	17457.91
795.781	17259.26
795.966	20105.93
796.15	16888.57
796.334	20568.77
796.518	18748.13
796.702	14938.91
796.886	16003.85
797.07	17201.91
797.254	15897.36
797.438	13753.13
797.622	13210.42
797.806	13863.72
797.99	14523.17
798.174	13122.36
798.358	14363.43
798.541	14189.35
798.725	14719.78
798.909	11844.43
799.093	12501.83
799.277	11705.17
799.461	12622.66
799.644	7918.47
799.828	10877.79
800.012	13200.18
800.196	10595.17
800.379	10539.87
800.563	8745.85
800.747	11936.59
800.93	9788.27
801.114	9837.42
801.298	8496
801.481	12014.41
801.665	11842.38
801.848	7953.29
802.032	9296.75
802.216	13271.86
802.399	9202.55
802.583	7986.05
802.766	7316.37
802.95	9796.46
803.133	11006.81
803.317	7984.01
803.5	7609.23
803.683	9055.09
803.867	7535.5
804.05	10369.89
804.233	11166.55
804.417	11703.12
804.6	8309.63
804.783	9702.25
804.967	10709.85
805.15	9507.69
805.333	9077.62
805.517	9456.5
805.7	7273.36
805.883	8502.14
806.066	9851.75
806.249	10367.84
806.432	6532
806.616	8637.31
806.799	6863.77
806.982	7840.65
807.165	8436.61
807.348	8643.45
807.531	7013.27
807.714	7631.76
807.897	8446.85
808.08	9151.35
808.263	9606
808.446	9489.26
808.629	8067.97
808.812	7490.45
808.995	7756.68
809.178	9958.25
809.361	9356.15
809.544	9413.49
809.726	10650.46
809.909	9524.08
810.092	8711.04
810.275	9474.93
810.458	11324.24
810.64	9278.32
810.823	8936.31
811.006	8463.23
811.189	10435.42
811.371	7152.53
811.554	7965.57
811.737	9235.32
811.919	9288.56
812.102	7279.5
812.285	5907.37
812.467	8721.27
812.65	7295.89
812.832	6712.22
813.015	9376.62
813.197	9546.61
813.38	9206.64
813.562	10185.57
813.745	6083.49
813.927	5952.42
814.11	9048.95
814.292	7259.03
814.475	6362.01
814.657	7134.1
814.839	8414.08
815.022	6384.54
815.204	10543.97
815.386	10185.57
815.569	9012.09
815.751	5694.38
815.933	8938.36
816.116	9096.05
816.298	8860.54
816.48	7162.77
816.662	6583.2
816.844	7957.38
817.027	7801.74
817.209	6677.4
817.391	6124.45
817.573	7168.91
817.755	6986.65
817.937	7830.41
818.119	6695.83
818.301	6632.35
818.483	7283.6
818.665	6550.43
818.847	8280.96
819.029	7594.89
819.211	5927.85
819.393	7492.49
819.575	10126.18
819.757	9380.72
819.939	7771.02
820.121	7154.58
820.303	7478.16
820.485	10204
820.666	9567.09
820.848	9683.82
821.03	6902.68
821.212	8565.63
821.394	5094.32
821.575	7576.46
821.757	9114.48
821.939	7494.54
822.121	7478.16
822.302	9915.24
822.484	8053.64
822.666	4549.56
822.847	6081.44
823.029	3982.28
823.21	7742.35
823.392	4682.68
823.573	6448.03
823.755	4948.92
823.937	5127.09
824.118	5512.11
824.3	11414.35
824.481	5419.95
824.662	5923.75
824.844	6114.21
825.025	7304.08
825.207	4406.2
825.388	6284.19
825.569	4973.49
825.751	5528.49
825.932	8774.52
826.113	4467.64
826.295	7367.57
826.476	6906.77
826.657	6063.01
826.839	5634.99
827.02	7070.61
827.201	9374.58
827.382	5747.62
827.563	7005.08
827.744	5622.7
827.926	6554.52
828.107	7850.89
828.288	4273.09
828.469	6392.73
828.65	6896.53
828.831	3638.22
829.012	5757.86
829.193	7609.23
829.374	4836.28
829.555	7926.66
829.736	11131.73
829.917	8625.02
830.098	7199.63
830.279	3351.5
830.46	4766.65
830.641	5395.37
830.822	5616.55
831.002	7195.54
831.183	4455.36
831.364	6728.6
831.545	6669.21
831.726	5368.75
831.906	5209.01
832.087	6556.57
832.268	6050.72
832.449	7156.63
832.629	3218.38
832.81	4733.88
832.991	4023.23
833.171	5731.24
833.352	5637.03
833.532	6865.82
833.713	4303.81
833.894	4854.71
834.074	2800.6
834.255	4060.1
834.435	3920.84
834.616	4178.88
834.796	4600.76
834.977	5958.57
835.157	8270.72
835.338	3617.74
835.518	2667.48
835.698	4981.68
835.879	3529.67
836.059	4934.58
836.239	4920.24
836.42	4486.08
836.6	5059.51
836.78	2454.49
836.961	3630.02
837.141	6011.81
837.321	3257.29
837.501	7984.01
837.682	3861.45
837.862	4232.13
838.042	9702.25
838.222	3689.42
838.402	3949.51
838.582	4238.27
838.763	5258.16
838.943	3845.06
839.123	6435.74
839.303	4766.65
839.483	5721
839.663	1704.93
839.843	14756.64
840.023	6114.21
840.203	5608.36
840.383	3830.73
840.563	3470.28
840.742	4463.55
840.922	3179.47
841.102	5356.46
841.282	4094.91
841.462	4307.9
841.642	3793.86
841.822	2773.97
842.001	1674.21
842.181	4901.81
842.361	4905.91
842.541	5858.21
842.72	4957.11
842.9	3632.07
843.08	4438.97
843.259	3847.11
843.439	3650.5
843.619	3222.48
843.798	3836.87
843.978	5088.18
844.157	3277.77
844.337	5184.43
844.517	3050.45
844.696	6192.03
844.876	5118.9
845.055	2591.7
845.235	5067.7
845.414	4170.69
845.593	2589.66
845.773	3197.9
845.952	1410.03
846.132	2112.48
846.311	2280.41
846.49	4527.03
846.67	4680.63
846.849	3021.78
847.028	2239.45
847.208	4985.78
847.387	2804.69
847.566	6429.6
847.745	2522.07
847.924	4596.67
848.104	4850.61
848.283	4496.32
848.462	5223.34
848.641	5657.51
848.82	3709.9
848.999	6128.55
849.178	3232.72
849.358	5170.1
849.537	3996.61
849.716	3013.59
849.895	2198.49
850.074	5544.88
850.253	5800.87
850.432	4187.07
850.61	3638.22
850.789	3113.94
850.968	5743.53
851.147	5591.98
851.326	2630.62
851.505	3451.85
851.684	4103.11
851.863	5481.39
852.041	4252.61
852.22	3392.46
852.399	2894.8
852.578	4678.58
852.756	2048.99
852.935	3218.38
853.114	5381.04
853.293	2042.85
853.471	6767.51
853.65	4232.13
853.828	3134.42
854.007	2300.89
854.186	4117.44
854.364	5266.35
854.543	4365.25
854.721	3081.17
854.9	4699.06
855.078	5694.38
855.257	3089.36
855.435	744.44
855.614	4002.75
855.792	3146.7
855.971	3191.76
856.149	1739.75
856.327	4524.99
856.506	3924.93
856.684	2980.82
856.862	2575.32
857.041	322.56
857.219	5401.52
857.397	2579.42
857.576	2927.57
857.754	2806.74
857.932	4842.42
858.11	3169.23
858.288	3269.58
858.467	1526.76
858.645	1786.85
858.823	3103.7
859.001	4121.54
859.179	2124.77
859.357	2458.59
859.535	4285.37
859.713	4893.62
859.891	4365.25
860.069	7084.95
860.247	2759.64
860.425	1184.75
860.603	4139.97
860.781	5407.66
860.959	3881.92
861.137	1164.27
861.315	2077.66
861.493	3689.42
861.67	4946.87
861.848	4776.89
862.026	2552.79
862.204	2403.29
862.382	2921.43
862.559	3261.39
862.737	4393.92
862.915	4922.29
863.093	2823.12
863.27	4869.05
863.448	4946.87
863.626	3488.71
863.803	3105.74
863.981	2339.8
864.158	1000.43
864.336	2372.57
864.514	1944.55
864.691	1549.29
864.869	2386.91
865.046	1866.72
865.224	3374.03
865.401	4883.38
865.578	2298.84
865.756	5536.68
865.933	801.78
866.111	4877.24
866.288	1805.28
866.465	2571.22
866.643	1733.61
866.82	2321.37
866.997	2206.69
867.175	2714.58
867.352	2481.11
867.529	492.54
867.706	2083.81
867.884	3019.73
868.061	2880.47
868.238	2378.72
868.415	1526.76
868.592	2028.51
868.77	2087.9
868.947	4230.08
869.124	2251.74
869.301	855.03
869.478	3238.86
869.655	41.98
869.832	2888.66
870.009	5534.64
870.186	5436.33
870.363	3105.74
870.54	3077.07
870.717	2376.67
870.894	2769.88
871.071	3648.46
871.247	1203.18
871.424	1969.12
871.601	2507.74
871.778	1801.19
871.955	2386.91
872.132	3247.05
872.308	2884.56
872.485	2382.81
872.662	2030.56
872.839	4541.37
873.015	1698.79
873.192	3077.07
873.369	2335.71
873.545	2126.82
873.722	2722.77
873.898	2712.53
874.075	2173.92
874.252	2917.33
874.428	2409.44
874.605	2612.18
874.781	-185.34
874.958	1483.75
875.134	3513.29
875.311	3072.98
875.487	3087.31
875.663	5028.79
875.84	2624.47
876.016	3675.08
876.193	3253.2
876.369	1788.9
876.545	1577.96
876.722	1434.6
876.898	2515.93
877.074	3111.89
877.25	3578.83
877.427	8115.08
877.603	2026.47
877.779	2048.99
877.955	2323.42
878.132	4567.99
878.308	4168.64
878.484	5618.6
878.66	1176.56
878.836	2804.69
879.012	2360.28
879.188	3032.02
879.364	2425.82
879.54	1928.16
879.716	906.23
879.892	2649.05
880.068	4105.15
880.244	5993.38
880.42	1442.79
880.596	2071.52
880.772	1557.48
880.948	1534.95
881.124	3310.54
881.3	6994.84
881.475	2309.08
881.651	2339.8
881.827	2018.27
882.003	2264.03
882.178	254.97
882.354	1780.71
882.53	1373.16
882.706	2345.95
882.881	2931.67
883.057	918.51
883.233	2335.71
883.408	4158.4
883.584	1614.82
883.759	908.27
883.935	689.14
884.111	500.73
884.286	1762.28
884.462	72.7
884.637	1780.71
884.813	609.27
884.988	2071.52
885.164	5401.52
885.339	1082.35
885.514	3892.16
885.69	1324.01
885.865	482.3
886.04	3091.41
886.216	1577.96
886.391	3253.2
886.566	2288.61
886.742	254.97
886.917	2208.73
887.092	4596.67
887.267	488.44
887.443	80.89
887.618	1201.13
887.793	1295.34
887.968	2567.13
888.143	431.1
888.318	2010.08
888.494	3232.72
888.669	2200.54
888.844	2075.62
889.019	1780.71
889.194	1666.02
889.369	1242.09
889.544	1549.29
889.719	3384.27
889.894	4588.47
890.069	2603.99
890.243	3371.98
890.418	1749.99
890.593	1053.68
890.768	2128.86
890.943	3967.94
891.118	1739.75
891.293	2401.24
891.467	1078.26
891.642	5260.21
891.817	1700.84
891.992	2456.54
892.166	1203.18
892.341	3390.41
892.516	2319.32
892.69	2560.98
892.865	191.49
893.04	1954.79
893.214	3501
893.389	2890.71
893.563	5032.88
893.738	5440.43
893.912	1641.45
894.087	2454.49
894.261	3775.43
894.436	1020.91
894.61	4873.14
894.785	2327.52
894.959	2319.32
895.134	3980.23
895.308	1246.19
895.482	3193.81
895.657	975.86
895.831	1143.79
896.005	8143.75
896.18	1623.02
896.354	2196.45
896.528	396.28
896.702	2454.49
896.877	4178.88
897.051	410.62
897.225	2491.35
897.399	2630.62
897.573	1428.46
897.747	2542.55
897.922	2040.8
898.096	3912.64
898.27	594.93
898.444	1369.07
898.618	2321.37
898.792	2192.35
898.966	2249.69
899.14	2837.46
899.314	2743.25
899.488	3822.53
899.662	2196.45
899.835	2065.38
900.009	2178.01
900.183	254.97
900.357	5194.67
900.531	1068.02
900.705	719.86
900.878	-154.62
901.052	553.98
901.226	2495.45
901.4	2048.99
901.573	621.56
901.747	111.61
901.921	1113.07
902.095	1426.41
902.268	2790.36
902.442	-80.89
902.615	-1006.58
902.789	2108.38
902.963	6753.18
903.136	484.34
903.31	2941.91
903.483	-517.11
903.657	2395.1
903.83	922.61
904.004	-1960.93
904.177	599.03
904.35	-23.55
904.524	-1549.29
904.697	556.02
904.871	642.04
905.044	1440.75
905.217	5125.04
905.391	3541.96
905.564	1170.41
905.737	777.2
905.91	-95.23
906.084	-2044.9
906.257	527.35
906.43	-2063.33
906.603	248.83
906.776	-3079.12
906.949	-1135.6
907.123	-1184.75
907.296	-418.81
907.469	2182.11
907.642	-699.38
907.815	1340.4
907.988	-15.36
908.161	-965.62
908.334	-893.94
908.507	932.85
908.68	537.59
908.853	173.05
909.026	-701.43
909.199	-590.84
909.371	2255.84
909.544	1344.49
909.717	-15.36
909.89	-1291.24
910.063	-1309.68
910.236	-173.05
910.408	349.18
910.581	-2151.39
910.754	-2137.06
910.927	-2675.67
911.099	66.56
911.272	326.65
911.445	140.29
911.617	-580.6
911.79	1666.02
911.962	-326.65
912.135	-998.38
912.308	1.02
912.48	-1846.24
912.653	-1305.58
912.825	-971.76
912.998	-777.2
913.17	1151.98
913.343	1571.82
913.515	-629.75
913.687	-1559.53
913.86	119.81
914.032	1690.6
914.205	-482.3
914.377	-82.94
914.549	-3099.6
914.721	416.76
914.894	-1506.28
915.066	-447.48
915.238	-1709.03
915.41	2057.18
915.583	246.78
915.755	-1692.65
915.927	-58.37
916.099	1078.26
916.271	-639.99
916.443	-1872.87
916.616	-2120.67
916.788	21586.61
916.96	2348
917.132	-3804.1
917.304	-357.37
917.476	1852.39
917.648	316.41
917.82	-3027.92
917.992	1397.74
918.164	1057.78
918.335	265.21
918.507	1094.64
918.679	-2393.05
918.851	1555.43
919.023	-687.09
919.195	31.74
919.366	-2112.48
919.538	-2626.52
919.71	-1584.1
919.882	-1444.84
920.053	-1825.76
920.225	-1397.74
920.397	1461.23
920.568	-1692.65
920.74	-1268.72
920.912	-1094.64
921.083	-1620.97
921.255	-1950.69
921.426	-2114.53
921.598	-48.13
921.77	-1045.49
921.941	-2010.08
922.113	-1801.19
922.284	1199.09
922.455	-1129.45
922.627	-2243.55
922.798	-2003.94
922.97	-1577.96
923.141	-1432.55
923.312	-3472.33
923.484	531.45
923.655	-2444.25
923.826	621.56
923.998	-1119.21
924.169	635.89
924.34	-1618.92
924.511	60.42
924.683	-269.31
924.854	-1377.26
925.025	-181.25
925.196	680.95
925.367	553.98
925.538	89.09
925.709	-365.56
925.881	388.09
926.052	-1537
926.223	-719.86
926.394	904.18
926.565	-889.84
926.736	-3541.96
926.907	-1754.09
927.078	-197.63
927.248	3855.3
927.419	619.51
927.59	-2878.42
927.761	801.78
927.932	666.61
928.103	-439.29
928.274	-1319.92
928.444	-484.34
928.615	-1102.83
928.786	-1240.05
928.957	-2106.34
929.127	-1170.41
929.298	113.66
929.469	-1311.72
929.639	-736.24
929.81	-332.79
929.981	-142.33
930.151	175.1
930.322	3208.14
930.492	449.53
930.663	3292.11
930.833	-1668.07
931.004	-433.15
931.174	396.28
931.345	-31.74
931.515	-1852.39
931.686	-400.38
931.856	1788.9
932.027	-1919.97
932.197	738.29
932.367	-1747.94
932.538	1096.69
932.708	-1211.37
932.878	-218.11
933.048	-777.2
933.219	-1065.97
933.389	1709.03
933.559	-1688.55
933.729	-1836
933.9	140.29
934.07	-1987.55
934.24	-2372.57
934.41	25.6
934.58	-46.08
934.75	646.13
934.92	-2980.82
935.09	146.43
935.26	-1139.69
935.43	2210.78
935.6	-975.86
935.77	-3.07
935.94	467.96
936.11	-1227.76
936.28	-1555.43
936.45	816.12
936.62	-66.56
936.79	459.77
936.96	-740.34
937.129	-1008.62
937.299	62.46
937.469	-44.03
937.639	-68.61
937.808	-877.55
937.978	-2286.56
938.148	1283.05
938.317	-60.42
938.487	164.86
938.657	-1399.79
938.826	-1450.99
938.996	-756.72
939.166	-3849.16
939.335	-2104.29
939.505	-84.99
939.674	-1272.81
939.844	-1962.98
940.013	56.32
940.183	-2038.75
940.352	-2016.23
940.522	-670.71
940.691	-979.95
940.86	576.5
941.03	-1027.06
941.199	-76.8
941.368	310.27
941.538	1147.89
941.707	-1836
941.876	-523.26
942.046	844.79
942.215	-304.12
942.384	-2075.62
942.553	-478.2
942.722	-762.87
942.892	1666.02
943.061	-2814.93
943.23	281.6
943.399	3337.17
943.568	-678.9
943.737	1915.87
943.906	-9.22
944.075	-1395.69
944.244	1344.49
944.413	-938.99
944.582	-2632.66
944.751	-101.37
944.92	-531.45
945.089	449.53
945.258	-932.85
945.427	-531.45
945.596	-816.12
945.764	-660.47
945.933	-1270.76
946.102	906.23
946.271	-691.19
946.44	-912.37
946.608	-1358.83
946.777	-1016.82
946.946	-347.13
947.114	1944.55
947.283	-879.6
947.452	-1729.51
947.62	-1168.37
947.789	834.55
947.958	-1260.52
948.126	416.76
948.295	128
948.463	-1065.97
948.632	-1133.55
948.8	-814.07
948.969	-1723.37
949.137	-908.27
949.305	-1637.35
949.474	707.57
949.642	625.65
949.811	582.65
949.979	-267.26
950.147	-2206.69
950.316	-1919.97
950.484	-2257.89
950.652	-1426.41
950.82	1242.09
950.989	-2972.63
951.157	-1776.61
951.325	-2005.99
951.493	773.11
951.661	713.72
951.83	721.91
951.998	-2544.6
952.166	-750.58
952.334	-1768.42
952.502	2816.98
952.67	797.68
952.838	656.37
953.006	2474.97
953.174	-41.98
953.342	209.92
953.51	-537.59
953.678	-668.66
953.846	-2612.18
954.014	-408.57
954.181	2081.76
954.349	-1477.61
954.517	-1967.07
954.685	-1764.33
954.853	-1229.81
955.02	-1635.3
955.188	-2296.8
955.356	-1371.12
955.524	1100.78
955.691	-564.22
955.859	-1700.84
956.027	-523.26
956.194	2624.47
956.362	-1125.36
956.529	545.78
956.697	-1221.61
956.865	420.86
957.032	1373.16
957.2	-2436.06
957.367	-2116.58
957.535	308.22
957.702	697.33
957.87	-2163.68
958.037	82.94
958.204	-1203.18
958.372	906.23
958.539	82.94
958.706	-418.81
958.874	2958.29
959.041	390.14
959.208	-2014.18
959.376	-1297.39
959.543	861.17
959.71	-205.82
959.877	1180.65
960.044	-259.07
960.212	2528.22
960.379	2974.67
960.546	220.16
960.713	-2599.9
960.88	-715.77
961.047	-203.77
961.214	24275.6
961.381	2114.53
961.548	-1000.43
961.715	-336.89
961.882	-2294.75
962.049	-1008.62
962.216	-881.65
962.383	-1344.49
962.55	-1018.86
962.717	1459.18
962.883	701.43
963.05	2448.35
963.217	553.98
963.384	-1260.52
963.551	-488.44
963.717	-1385.45
963.884	-216.06
964.051	383.99
964.218	1219.57
964.384	5632.94
964.551	-2040.8
964.717	-2468.83
964.884	-605.17
965.051	-1397.74
965.217	-2163.68
965.384	-2690.01
965.55	982
965.717	730.1
965.883	-37.89
966.05	-1434.6
966.216	2092
966.383	902.13
966.549	-228.35
966.716	-736.24
966.882	-1858.53
967.048	-1362.92
967.215	-2378.72
967.381	-1182.7
967.547	1731.56
967.713	2100.19
967.88	576.5
968.046	-2419.68
968.212	-822.26
968.378	1154.03
968.545	-2319.32
968.711	1141.74
968.877	-613.37
969.043	-123.9
969.209	-1977.31
969.375	990.19
969.541	2038.75
969.707	2616.28
969.873	1231.85
970.039	-603.13
970.205	1770.47
970.371	4842.42
970.537	1407.98
970.703	236.54
970.869	-908.27
971.035	1758.18
971.201	-17.41
971.367	-1528.81
971.532	-506.87
971.698	-400.38
971.864	1246.19
972.03	-1866.72
972.195	-1340.4
972.361	1942.5
972.527	-1383.4
972.693	3085.26
972.858	1504.23
973.024	-1772.52
973.19	-756.72
973.355	238.59
973.521	603.13
973.686	1385.45
973.852	-2603.99
974.017	4158.4
974.183	-2257.89
974.348	617.46
974.514	-2292.7
974.679	-228.35
974.845	-1367.02
975.01	-472.06
975.175	-2884.56
975.341	17904.37
975.506	-265.21
975.672	457.72
975.837	3699.66
976.002	-138.24
976.167	-908.27
976.333	4795.32
976.498	-783.35
976.663	-1637.35
976.828	938.99
976.993	-1172.46
977.159	226.3
977.324	519.16
977.489	3015.63
977.654	97.28
977.819	-1025.01
977.984	-371.71
978.149	2624.47
978.314	1332.2
978.479	-1137.65
978.644	-1938.4
978.809	-711.67
978.974	-1668.07
979.139	1913.83
979.304	-3.07
979.469	-785.4
979.633	-752.63
979.798	-551.93
979.963	-1473.51
980.128	2722.77
980.293	-1879.01
980.457	-1428.46
980.622	-2264.03
980.787	-1868.77
980.951	-173.05
981.116	-422.91
981.281	-1752.04
981.445	-302.08
981.61	824.31
981.775	-1807.33
981.939	-2556.89
982.104	2087.9
982.268	1088.5
982.433	1281
982.597	-1534.95
982.762	2571.22
982.926	855.03
983.091	-769.01
983.255	-2548.7
983.419	-1784.8
983.584	1582.06
983.748	-56.32
983.912	-226.3
984.077	1905.63
984.241	2073.57
984.405	-1903.59
984.57	1889.25
984.734	-599.03
984.898	-375.8
985.062	-1178.61
985.226	-1215.47
985.39	2503.64
985.555	60.42
985.719	1958.88
985.883	281.6
986.047	-1356.78
986.211	547.83
986.375	9.22
986.539	-1330.16
986.703	-1303.53
986.867	-111.61
987.031	494.58
987.195	-1033.2
987.359	-1625.06
987.523	300.03
987.686	-2169.82
987.85	-1797.09
988.014	670.71
988.178	-1199.09
988.342	838.64
988.506	441.34
988.669	-381.95
988.833	332.79
988.997	535.54
989.16	-517.11
989.324	-322.56
989.488	2778.07
989.651	195.58
989.815	3314.64
989.979	-1096.69
990.142	132.09
990.306	-693.24
990.469	281.6
990.633	867.31
990.796	2096.1
990.96	-656.37
991.123	91.13
991.286	1588.2
991.45	1106.93
991.613	-1825.76
991.777	-2233.31
991.94	-2016.23
992.103	506.87
992.267	2692.05
992.43	-812.02
992.593	433.15
992.756	676.85
992.92	685.05
993.083	728.05
993.246	-244.73
993.409	-2659.29
993.572	-2128.86
993.735	-519.16
993.899	220.16
994.062	-418.81
994.225	-953.33
994.388	173.05
994.551	2667.48
994.714	-345.08
994.877	-584.7
995.04	-1580.01
995.203	-1364.97
995.366	1149.93
995.528	-1360.88
995.691	869.36
995.854	-1575.91
996.017	-742.39
996.18	-2571.22
996.343	-412.67
996.505	1887.2
996.668	590.84
996.831	-623.61
996.994	-472.06
997.156	-410.62
997.319	-1209.33
997.482	1481.71
997.644	-1555.43
997.807	1088.5
997.97	-2020.32
998.132	-1147.89
998.295	1106.93
998.457	181.25
998.62	-1137.65
998.782	-1692.65
998.945	128
999.107	-1.02
999.27	-11.26
999.432	-822.26
999.594	525.3
999.757	1854.44
999.919	166.91
1000.081	-2182.11
1000.244	-392.19
1000.406	-132.09
1000.568	-228.35
1000.731	1938.4
1000.893	1655.78
1001.055	1416.17
1001.217	-668.66
1001.379	-2327.52
1001.542	-1307.63
1001.704	2972.63
1001.866	-850.93
1002.028	1022.96
1002.19	359.42
1002.352	-1098.74
1002.514	-1450.99
1002.676	5284.78
1002.838	1569.77
1003	-693.24
1003.162	-1047.54
1003.324	2102.24
1003.486	1248.24
1003.648	-1233.9
1003.809	-678.9
1003.971	961.52
1004.133	-175.1
1004.295	-242.68
1004.457	-343.03
1004.618	596.98
1004.78	332.79
1004.942	3503.05
1005.104	39.94
1005.265	-1467.37
1005.427	875.51
1005.589	-746.48
1005.75	402.43
1005.912	1674.21
1006.073	2051.04
1006.235	220.16
1006.396	-414.71
1006.558	-244.73
1006.72	-246.78
1006.881	304.12
1007.042	-1217.52
1007.204	-1899.49
1007.365	-1180.65
1007.527	1000.43
1007.688	2952.15
1007.849	-31.74
1008.011	-148.48
1008.172	388.09
1008.333	685.05
1008.495	-427
1008.656	-2092
1008.817	906.23
1008.978	2366.43
1009.139	-719.86
1009.301	558.07
1009.462	-2679.77
1009.623	1164.27
1009.784	-1371.12
1009.945	211.96
1010.106	742.39
1010.267	148.48
1010.428	-1330.16
1010.589	-2186.21
1010.75	230.4
1010.911	-1205.23
1011.072	-2343.9
1011.233	930.8
1011.394	-629.75
1011.555	70.65
1011.716	523.26
1011.877	-1313.77
1012.037	232.44
1012.198	-1219.57
1012.359	486.39
1012.52	-1399.79
1012.68	-422.91
1012.841	13.31
1013.002	224.25
1013.163	-838.64
1013.323	234.49
1013.484	-1854.44
1013.644	-1432.55
1013.805	668.66
1013.966	-523.26
1014.126	2606.04
1014.287	-850.93
1014.447	-302.08
1014.608	1283.05
1014.768	-1127.41
1014.929	1260.52
1015.089	-1321.96
1015.249	312.32
1015.41	-50.18
1015.57	1082.35
1015.731	-2245.6
1015.891	-799.73
1016.051	480.25
1016.211	-730.1
1016.372	1395.69
1016.532	-680.95
1016.692	-302.08
1016.852	470.01
1017.013	-482.3
1017.173	-324.6
1017.333	-1063.92
1017.493	-660.47
1017.653	-1317.87
1017.813	-2114.53
1017.973	-390.14
1018.133	-1424.36
1018.293	-1768.42
1018.453	-324.6
1018.613	-2014.18
1018.773	1971.17
1018.933	-254.97
1019.093	867.31
1019.253	76.8
1019.413	1186.8
1019.573	-2165.73
1019.733	-506.87
1019.892	2178.01
1020.052	-543.74
1020.212	429.05
1020.372	134.14
1020.531	1442.79
1020.691	-343.03
1020.851	263.16
1021.01	252.92
1021.17	158.72
1021.33	-541.69
1021.489	-1592.3
1021.649	-46.08
1021.808	-109.57
1021.968	273.4
1022.127	-2728.92
1022.287	1893.35
1022.446	-697.33
1022.606	574.46
1022.765	-1434.6
1022.925	2644.95
1023.084	850.93
1023.244	1774.56
1023.403	-472.06
1023.562	-1078.26
1023.722	-601.08
1023.881	-658.42
1024.04	-232.44
1024.199	666.61
1024.359	119.81
1024.518	-2175.97
1024.677	-863.22
1024.836	-877.55
1024.995	963.57
1025.154	-1133.55
1025.313	-199.68
1025.473	-1371.12
1025.632	-1274.86
1025.791	781.3
1025.95	-1334.25
1026.109	-789.49
1026.268	232.44
1026.427	1209.33
1026.586	1700.84
1026.744	21.5
1026.903	5899.17
1027.062	-326.65
1027.221	1119.21
1027.38	226.3
1027.539	953.33
1027.698	4668.34
1027.856	-1401.83
1028.015	799.73
1028.174	541.69
1028.333	224.25
1028.491	4148.16
1028.65	1528.81
1028.808	3793.86
1028.967	721.91
1029.126	631.8
1029.284	-1850.34
1029.443	418.81
1029.601	-760.82
1029.76	-1450.99
1029.918	-1412.07
1030.077	658.42
1030.235	2264.03
1030.394	-818.16
1030.552	1209.33
1030.711	2528.22
1030.869	-760.82
1031.027	-795.64
1031.186	-2569.18
1031.344	-1151.98
1031.502	-320.51
1031.661	1287.15
1031.819	2130.91
1031.977	1018.86
1032.135	-1672.17
1032.293	-1072.11
1032.452	-1510.38
1032.61	3568.59
1032.768	-1692.65
1032.926	164.86
1033.084	3251.15
1033.242	-621.56
1033.4	-1508.33
1033.558	680.95
1033.716	-691.19
1033.874	-840.69
1034.032	-201.72
1034.19	-361.47
1034.348	2270.17
1034.506	-1788.9
1034.664	527.35
1034.822	-1715.17
1034.979	2401.24
1035.137	875.51
1035.295	-287.74
