Data from TmLN Sample 2_USBC44471_15-07-51-106.txt Node
Date: Wed Jul 29 15:07:51 MDT 2020
User: Montana Instruments
Spectrometer: USBC4447
Scans to average: 1
Trigger mode: 4
Integration Time (sec): 1.000000E1
Electric dark correction enabled: true
Boxcar width: 0
XAxis mode: Wavelengths
Number of Pixels in Spectrum: 3648
>>>>>Begin Spectral Data<<<<<
344.991	-5313.45
345.205	-5313.45
345.419	-5313.45
345.633	-5262.26
345.847	-5258.16
346.061	-261.12
346.275	705.53
346.489	-1344.49
346.703	-39.94
346.917	-1653.73
347.131	1139.69
347.345	-723.96
347.559	-967.67
347.773	1518.57
347.986	50.18
348.2	2694.1
348.414	-1117.17
348.628	-734.2
348.842	-885.75
349.056	-1158.13
349.269	316.41
349.483	1332.2
349.697	1422.31
349.911	1367.02
350.125	-1096.69
350.338	353.27
350.552	805.88
350.766	-672.76
350.979	-1485.8
351.193	-615.41
351.407	5182.38
351.621	-306.17
351.834	-1487.85
352.048	2309.08
352.262	-226.3
352.475	3464.14
352.689	850.93
352.902	1397.74
353.116	5.12
353.33	-1377.26
353.543	-1106.93
353.757	398.33
353.971	140.29
354.184	214.01
354.398	-586.74
354.611	680.95
354.825	2786.26
355.038	1106.93
355.252	-267.26
355.465	-422.91
355.679	-1831.91
355.892	701.43
356.106	1278.96
356.319	7465.87
356.533	-791.54
356.746	-224.25
356.96	-736.24
357.173	-1532.9
357.386	1199.09
357.6	-744.44
357.813	-975.86
358.027	-1897.44
358.24	-879.6
358.453	2477.02
358.667	-1274.86
358.88	1025.01
359.094	-1065.97
359.307	23.55
359.52	-375.8
359.733	1981.41
359.947	-2343.9
360.16	1094.64
360.373	1502.19
360.587	-1098.74
360.8	-654.33
361.013	-398.33
361.226	-736.24
361.44	2522.07
361.653	1420.27
361.866	-873.46
362.079	-2087.9
362.292	168.96
362.506	3353.55
362.719	621.56
362.932	2765.78
363.145	7.17
363.358	-938.99
363.571	-1305.58
363.785	-363.51
363.998	1199.09
364.211	1944.55
364.424	-1250.28
364.637	1065.97
364.85	-758.77
365.063	1940.45
365.276	62.46
365.489	-1661.93
365.702	-424.95
365.915	123.9
366.128	-363.51
366.341	2001.89
366.554	3230.67
366.767	-820.21
366.98	-7.17
367.193	975.86
367.406	-1362.92
367.619	3529.67
367.832	1803.24
368.045	148.48
368.258	295.93
368.471	1043.44
368.684	-2081.76
368.896	-1868.77
369.109	-15.36
369.322	-1111.02
369.535	-277.5
369.748	-1485.8
369.961	-779.25
370.173	-2831.32
370.386	-2622.42
370.599	2468.83
370.812	-570.36
371.025	-783.35
371.237	56.32
371.45	119.81
371.663	658.42
371.876	-562.17
372.088	4606.91
372.301	-781.3
372.514	-1543.14
372.726	400.38
372.939	-420.86
373.152	-455.67
373.364	875.51
373.577	3433.42
373.79	-566.26
374.002	-1084.4
374.215	-3095.5
374.428	-1846.24
374.64	1424.36
374.853	-1063.92
375.065	-603.13
375.278	3437.52
375.491	54.27
375.703	1242.09
375.916	-2178.01
376.128	-623.61
376.341	-1686.5
376.553	945.14
376.766	-1338.35
376.978	-1813.48
377.191	824.31
377.403	-1733.61
377.616	2978.77
377.828	3832.77
378.04	-1342.44
378.253	-529.4
378.465	400.38
378.678	1074.16
378.89	-1131.5
379.103	-812.02
379.315	125.95
379.527	-1672.17
379.74	-562.17
379.952	-259.07
380.164	-1557.48
380.377	1905.63
380.589	-33.79
380.801	-39.94
381.014	1461.23
381.226	1039.34
381.438	-5.12
381.65	-1334.25
381.863	25.6
382.075	-979.95
382.287	-2300.89
382.499	-1022.96
382.712	-205.82
382.924	76.8
383.136	-1000.43
383.348	-3775.43
383.56	1.02
383.772	-977.91
383.985	93.18
384.197	1418.22
384.409	-664.57
384.621	289.79
384.833	-115.71
385.045	76.8
385.257	-1344.49
385.469	-711.67
385.681	64.51
385.893	-74.75
386.105	-1004.53
386.318	-2804.69
386.53	-396.28
386.742	-3779.53
386.954	-2325.47
387.166	2606.04
387.378	46.08
387.589	74.75
387.801	-3625.93
388.013	-1442.79
388.225	-1319.92
388.437	-2186.21
388.649	-1827.81
388.861	2403.29
389.073	1018.86
389.285	-687.09
389.497	842.74
389.709	1338.35
389.92	-1127.41
390.132	-967.67
390.344	-945.14
390.556	-769.01
390.768	252.92
390.98	-1094.64
391.191	1706.98
391.403	703.48
391.615	316.41
391.827	-1289.2
392.038	-877.55
392.25	-273.4
392.462	-2139.1
392.674	-2087.9
392.885	-1428.46
393.097	-2511.83
393.309	-783.35
393.52	1055.73
393.732	-1534.95
393.944	683
394.155	300.03
394.367	-1504.23
394.579	529.4
394.79	-1113.07
395.002	-332.79
395.213	-2923.48
395.425	-340.99
395.637	-1123.31
395.848	-2210.78
396.06	400.38
396.271	238.59
396.483	-1188.85
396.694	-277.5
396.906	-543.74
397.117	1207.28
397.329	1375.21
397.54	-844.79
397.752	-1768.42
397.963	-1082.35
398.175	150.53
398.386	932.85
398.598	-930.8
398.809	-2178.01
399.02	814.07
399.232	666.61
399.443	13.31
399.655	-1039.34
399.866	-1059.82
400.077	-613.37
400.289	1346.54
400.5	-50.18
400.711	717.81
400.923	-1412.07
401.134	-1074.16
401.345	-1799.14
401.556	3292.11
401.768	-1033.2
401.979	-920.56
402.19	758.77
402.401	-457.72
402.613	-56.32
402.824	-807.92
403.035	-2810.84
403.246	-1831.91
403.457	252.92
403.669	218.11
403.88	-1606.63
404.091	-2214.88
404.302	-1281
404.513	-715.77
404.724	-992.24
404.935	-713.72
405.146	936.95
405.358	-1786.85
405.569	-1561.58
405.78	-2032.61
405.991	-951.28
406.202	97.28
406.413	-369.66
406.624	-1481.71
406.835	-252.92
407.046	2784.21
407.257	-128
407.468	1223.66
407.679	-537.59
407.89	1764.33
408.101	1891.3
408.312	-568.31
408.522	-1917.92
408.733	89.09
408.944	35.84
409.155	-588.79
409.366	975.86
409.577	-1954.79
409.788	-406.52
409.999	76.8
410.209	-756.72
410.42	-76.8
410.631	-1879.01
410.842	-197.63
411.053	4936.63
411.264	1033.2
411.474	-1213.42
411.685	-99.33
411.896	-1381.35
412.107	-2139.1
412.317	-1022.96
412.528	1893.35
412.739	-2270.17
412.949	-1295.34
413.16	-33.79
413.371	1895.4
413.581	877.55
413.792	-637.94
414.003	3478.47
414.213	1702.89
414.424	-2102.24
414.635	-588.79
414.845	-1131.5
415.056	-21.5
415.266	-1702.89
415.477	-2483.16
415.687	611.32
415.898	967.67
416.109	-1741.8
416.319	394.23
416.53	-3140.56
416.74	15.36
416.951	-1395.69
417.161	-62.46
417.372	232.44
417.582	543.74
417.792	1618.92
418.003	2079.71
418.213	-875.51
418.424	445.43
418.634	-1551.34
418.844	986.1
419.055	1774.56
419.265	-1301.48
419.476	336.89
419.686	-1082.35
419.896	-76.8
420.107	-1170.41
420.317	-881.65
420.527	74.75
420.738	-541.69
420.948	1106.93
421.158	1326.06
421.368	-730.1
421.579	-308.22
421.789	-1160.17
421.999	-4187.07
422.209	-340.99
422.419	-533.5
422.63	-70.65
422.84	-474.1
423.05	-1229.81
423.26	-1158.13
423.47	-316.41
423.681	-2046.94
423.891	707.57
424.101	1457.13
424.311	-760.82
424.521	-287.74
424.731	-769.01
424.941	-695.29
425.151	283.64
425.361	-1688.55
425.571	-2730.97
425.781	3834.82
425.991	701.43
426.201	1573.86
426.411	334.84
426.621	-1397.74
426.831	-1987.55
427.041	66.56
427.251	-373.75
427.461	1162.22
427.671	1100.78
427.881	-828.4
428.091	-322.56
428.301	2235.36
428.511	-62.46
428.721	-3814.34
428.93	-637.94
429.14	-1188.85
429.35	250.88
429.56	-1293.29
429.77	-343.03
429.98	-1303.53
430.189	-1147.89
430.399	2685.91
430.609	1461.23
430.819	183.29
431.029	-1561.58
431.238	-1025.01
431.448	-990.19
431.658	-2864.08
431.867	-809.97
432.077	236.54
432.287	-1080.3
432.497	-1125.36
432.706	-193.53
432.916	-486.39
433.125	-3312.59
433.335	-1360.88
433.545	1125.36
433.754	3683.27
433.964	-1266.67
434.174	-928.75
434.383	2132.96
434.593	-1326.06
434.802	805.88
435.012	-1436.65
435.221	146.43
435.431	-652.28
435.64	-1119.21
435.85	-1233.9
436.059	201.72
436.269	744.44
436.478	-1078.26
436.688	-2266.08
436.897	-801.78
437.107	-2180.06
437.316	26708.58
437.525	117.76
437.735	58.37
437.944	5.12
438.154	2331.61
438.363	115.71
438.572	2780.12
438.782	328.7
438.991	-955.38
439.2	-347.13
439.41	-963.57
439.619	-1213.42
439.828	150.53
440.038	80.89
440.247	1973.22
440.456	-1711.08
440.665	603.13
440.875	785.4
441.084	252.92
441.293	-1741.8
441.502	-1233.9
441.711	-1188.85
441.92	300.03
442.13	-369.66
442.339	-1166.32
442.548	-482.3
442.757	1629.16
442.966	-3038.16
443.175	-928.75
443.384	1225.71
443.593	1375.21
443.803	-2024.42
444.012	-310.27
444.221	-453.63
444.43	4398.01
444.639	556.02
444.848	1942.5
445.057	-1301.48
445.266	-1498.09
445.475	-2376.67
445.684	-1278.96
445.893	2106.34
446.102	297.98
446.311	-3312.59
446.52	-50.18
446.728	2808.79
446.937	-3523.53
447.146	-4381.63
447.355	150.53
447.564	-484.34
447.773	1303.53
447.982	1264.62
448.191	519.16
448.399	-1278.96
448.608	-1020.91
448.817	-719.86
449.026	936.95
449.235	-1526.76
449.443	1016.82
449.652	-590.84
449.861	-926.71
450.07	236.54
450.278	1719.27
450.487	-3376.08
450.696	-82.94
450.904	-1205.23
451.113	-818.16
451.322	529.4
451.53	-820.21
451.739	2683.86
451.948	-1033.2
452.156	7.17
452.365	4117.44
452.574	689.14
452.782	271.36
452.991	-508.92
453.199	670.71
453.408	230.4
453.616	-1639.4
453.825	1182.7
454.033	1139.69
454.242	3152.85
454.45	3398.6
454.659	400.38
454.867	10681.18
455.076	-1049.58
455.284	-957.43
455.493	-1641.45
455.701	-1084.4
455.91	3062.74
456.118	-857.07
456.326	-2048.99
456.535	2448.35
456.743	1090.54
456.951	-2671.58
457.16	900.08
457.368	510.97
457.576	-1663.97
457.785	2444.25
457.993	-173.05
458.201	-1354.73
458.41	441.34
458.618	-938.99
458.826	-162.81
459.034	-3005.39
459.243	-1633.26
459.451	66.56
459.659	-158.72
459.867	-553.98
460.075	-881.65
460.284	-175.1
460.492	-2337.76
460.7	-492.54
460.908	-707.57
461.116	-3402.7
461.324	-1356.78
461.532	-2458.59
461.741	-1971.17
461.949	-904.18
462.157	2081.76
462.365	-191.49
462.573	-211.96
462.781	410.62
462.989	-834.55
463.197	-1620.97
463.405	-2399.2
463.613	3.07
463.821	-2462.68
464.029	-93.18
464.237	-1111.02
464.445	-717.81
464.653	793.59
464.861	-304.12
465.069	1240.05
465.276	4529.08
465.484	-924.66
465.692	-615.41
465.9	-906.23
466.108	-670.71
466.316	908.27
466.524	-869.36
466.731	-449.53
466.939	1819.62
467.147	-201.72
467.355	-242.68
467.563	1457.13
467.77	775.16
467.978	-2548.7
468.186	207.87
468.393	1922.02
468.601	-412.67
468.809	-1971.17
469.017	-760.82
469.224	-1844.2
469.432	1070.06
469.64	-1500.14
469.847	-2048.99
470.055	502.78
470.263	-1127.41
470.47	-1225.71
470.678	1149.93
470.885	-285.69
471.093	2460.63
471.3	844.79
471.508	-1557.48
471.716	-500.73
471.923	156.67
472.131	330.75
472.338	-1508.33
472.546	-836.6
472.753	2753.49
472.961	-1420.27
473.168	-119.81
473.375	-492.54
473.583	1018.86
473.79	-324.6
473.998	226.3
474.205	359.42
474.412	1932.26
474.62	-816.12
474.827	-1362.92
475.035	1387.5
475.242	-787.44
475.449	-1434.6
475.657	3896.26
475.864	3050.45
476.071	-11.26
476.278	-1045.49
476.486	-607.22
476.693	246.78
476.9	234.49
477.107	150.53
477.315	-926.71
477.522	123.9
477.729	1407.98
477.936	-678.9
478.143	-1479.66
478.351	1197.04
478.558	-1297.39
478.765	-574.46
478.972	-443.39
479.179	418.81
479.386	637.94
479.593	904.18
479.8	783.35
480.007	-1692.65
480.215	-318.46
480.422	996.34
480.629	-2241.5
480.836	1072.11
481.043	3003.35
481.25	-672.76
481.457	-1438.7
481.664	-738.29
481.871	709.62
482.078	-1295.34
482.284	-1383.4
482.491	2069.47
482.698	1702.89
482.905	-1104.88
483.112	-2137.06
483.319	209.92
483.526	66.56
483.733	2335.71
483.94	-2696.15
484.146	-1639.4
484.353	-109.57
484.56	-648.18
484.767	-4015.04
484.974	1971.17
485.18	1467.37
485.387	-343.03
485.594	-1332.2
485.801	1831.91
486.007	244.73
486.214	-938.99
486.421	-1967.07
486.627	-265.21
486.834	807.92
487.041	496.63
487.247	-1319.92
487.454	-1434.6
487.661	390.14
487.867	427
488.074	-1698.79
488.281	1096.69
488.487	-207.87
488.694	-855.03
488.9	-537.59
489.107	-1014.77
489.313	-803.83
489.52	-639.99
489.726	-1807.33
489.933	2747.35
490.139	2743.25
490.346	-449.53
490.552	181.25
490.759	-361.47
490.965	13.31
491.172	16194.31
491.378	-508.92
491.584	17.41
491.791	1623.02
491.997	-87.04
492.204	-472.06
492.41	3222.48
492.616	-1631.21
492.823	-1571.82
493.029	-1100.78
493.235	2276.32
493.442	-187.39
493.648	-418.81
493.854	-680.95
494.06	4481.98
494.267	680.95
494.473	-740.34
494.679	-1344.49
494.885	381.95
495.091	3173.33
495.298	758.77
495.504	-2468.83
495.71	-209.92
495.916	-1981.41
496.122	2579.42
496.328	646.13
496.535	691.19
496.741	-449.53
496.947	654.33
497.153	-414.71
497.359	527.35
497.565	447.48
497.771	1733.61
497.977	-189.44
498.183	-662.52
498.389	797.68
498.595	-1518.57
498.801	478.2
499.007	850.93
499.213	-420.86
499.419	-728.05
499.625	-70.65
499.831	3126.22
500.037	-629.75
500.243	-1512.42
500.448	-750.58
500.654	748.53
500.86	1952.74
501.066	-537.59
501.272	2466.78
501.478	-1881.06
501.684	-588.79
501.889	-1852.39
502.095	-1459.18
502.301	-410.62
502.507	625.65
502.712	-553.98
502.918	-1330.16
503.124	-1102.83
503.33	914.42
503.535	-900.08
503.741	-9.22
503.947	-402.43
504.152	-353.27
504.358	-2196.45
504.564	-639.99
504.769	515.06
504.975	4230.08
505.181	-107.52
505.386	-1704.93
505.592	-754.68
505.797	738.29
506.003	-2571.22
506.208	1936.35
506.414	-410.62
506.619	39.94
506.825	367.61
507.03	-2085.86
507.236	-1084.4
507.441	-25.6
507.647	-838.64
507.852	23.55
508.058	1223.66
508.263	1209.33
508.469	-513.02
508.674	-2216.93
508.879	-549.88
509.085	-189.44
509.29	-1559.53
509.495	-1387.5
509.701	-959.47
509.906	930.8
510.111	-670.71
510.317	941.04
510.522	244.73
510.727	2092
510.933	-586.74
511.138	257.02
511.343	-750.58
511.548	683
511.754	-1543.14
511.959	2350.04
512.164	-140.29
512.369	3308.49
512.574	3455.95
512.779	-1414.12
512.985	-355.32
513.19	992.24
513.395	17.41
513.6	-951.28
513.805	-369.66
514.01	2034.66
514.215	-336.89
514.42	2888.66
514.625	-556.02
514.83	2532.31
515.035	-199.68
515.24	33.79
515.445	2878.42
515.65	1979.36
515.855	326.65
516.06	-553.98
516.265	639.99
516.47	1426.41
516.675	107.52
516.88	-2307.04
517.085	220.16
517.29	-695.29
517.495	519.16
517.7	1625.06
517.904	-128
518.109	517.11
518.314	-371.71
518.519	576.5
518.724	627.7
518.928	611.32
519.133	-478.2
519.338	162.81
519.543	441.34
519.747	945.14
519.952	2886.61
520.157	6091.68
520.362	1121.26
520.566	2804.69
520.771	-1946.59
520.976	1164.27
521.18	3900.36
521.385	-914.42
521.59	-766.96
521.794	590.84
521.999	2036.7
522.203	-941.04
522.408	-562.17
522.612	-975.86
522.817	758.77
523.022	2290.65
523.226	-158.72
523.431	-928.75
523.635	52.22
523.84	2317.28
524.044	-820.21
524.249	1537
524.453	2970.58
524.657	121.85
524.862	6060.96
525.066	-822.26
525.271	-162.81
525.475	1307.63
525.679	-162.81
525.884	-1670.12
526.088	1303.53
526.292	2694.1
526.497	150.53
526.701	-908.27
526.905	-275.45
527.11	214.01
527.314	-238.59
527.518	3513.29
527.722	-750.58
527.927	1121.26
528.131	-1829.86
528.335	5493.68
528.539	1866.72
528.744	2827.22
528.948	-1672.17
529.152	-1006.58
529.356	2530.27
529.56	629.75
529.764	41.98
529.968	87.04
530.173	7879.56
530.377	6241.18
530.581	-1545.19
530.785	1743.85
530.989	-336.89
531.193	279.55
531.397	-1319.92
531.601	230.4
531.805	1743.85
532.009	1700.84
532.213	66.56
532.417	678.9
532.621	2124.77
532.825	3384.27
533.029	175.1
533.233	680.95
533.436	676.85
533.64	207.87
533.844	1649.64
534.048	-670.71
534.252	740.34
534.456	3328.97
534.66	2366.43
534.863	58.37
535.067	486.39
535.271	2446.3
535.475	-398.33
535.679	2165.73
535.882	3220.43
536.086	2055.14
536.29	2327.52
536.493	596.98
536.697	1594.34
536.901	1197.04
537.104	2005.99
537.308	1223.66
537.512	1442.79
537.715	3900.36
537.919	1684.45
538.123	2069.47
538.326	1446.89
538.53	2771.93
538.733	3650.5
538.937	2407.39
539.141	1958.88
539.344	3195.86
539.548	2175.97
539.751	4928.44
539.955	5557.16
540.158	7537.55
540.362	5104.56
540.565	3265.49
540.768	4639.67
540.972	11033.43
541.175	9157.49
541.379	7132.05
541.582	6421.41
541.785	8012.68
541.989	9739.12
542.192	5247.92
542.396	6585.24
542.599	8285.06
542.802	8924.02
543.005	7652.24
543.209	6642.59
543.412	8240
543.615	8268.67
543.819	8117.12
544.022	6517.66
544.225	8102.79
544.428	7836.55
544.631	10519.39
544.835	7386
545.038	6298.53
545.241	6816.66
545.444	9800.55
545.647	8223.62
545.85	7119.76
546.054	5780.39
546.257	4000.71
546.46	6603.68
546.663	6101.92
546.866	6802.33
547.069	6851.48
547.272	5401.52
547.475	6138.79
547.678	5368.75
547.881	4238.27
548.084	4537.27
548.287	5188.53
548.49	2487.26
548.693	3941.32
548.896	1862.63
549.099	4539.32
549.302	2673.62
549.505	2071.52
549.707	1688.55
549.91	4004.8
550.113	2065.38
550.316	1641.45
550.519	4338.62
550.722	4113.35
550.924	1856.48
551.127	2982.87
551.33	2225.12
551.533	1631.21
551.736	1127.41
551.938	1295.34
552.141	2780.12
552.344	781.3
552.546	3032.02
552.749	1737.7
552.952	1743.85
553.154	1784.8
553.357	1889.25
553.56	1543.14
553.762	6970.26
553.965	5675.95
554.168	2044.9
554.37	3820.49
554.573	2692.05
554.775	4193.22
554.978	3220.43
555.18	449.53
555.383	1248.24
555.585	4914.1
555.788	2599.9
555.99	1344.49
556.193	1866.72
556.395	3218.38
556.598	1029.1
556.8	1686.5
557.003	1952.74
557.205	5811.11
557.407	1346.54
557.61	2141.15
557.812	2268.13
558.015	4406.2
558.217	1410.03
558.419	2253.79
558.622	3828.68
558.824	2431.96
559.026	1088.5
559.228	1786.85
559.431	3271.63
559.633	3206.1
559.835	1784.8
560.037	3158.99
560.24	4895.67
560.442	4148.16
560.644	1264.62
560.846	3435.47
561.048	3324.88
561.25	4350.91
561.453	2968.53
561.655	2063.33
561.857	2628.57
562.059	2208.73
562.261	4586.43
562.463	2767.83
562.665	2710.49
562.867	3738.57
563.069	3781.57
563.271	4647.87
563.473	3664.84
563.675	3228.62
563.877	3347.4
564.079	2118.62
564.281	5245.87
564.483	3670.98
564.685	2986.96
564.887	2372.57
565.089	4580.28
565.291	4496.32
565.493	1942.5
565.694	5221.3
565.896	2014.18
566.098	3974.08
566.3	5157.81
566.502	2773.97
566.704	5575.59
566.905	787.44
567.107	1407.98
567.309	1178.61
567.511	4355.01
567.712	1498.09
567.914	2450.39
568.116	478.2
568.317	4750.26
568.519	3003.35
568.721	361.47
568.922	146.43
569.124	2497.5
569.326	5055.41
569.527	2460.63
569.729	2450.39
569.93	6519.71
570.132	1862.63
570.334	4021.19
570.535	869.36
570.737	1973.22
570.938	6280.1
571.14	2284.51
571.341	3509.19
571.543	6779.8
571.744	2769.88
571.946	4373.44
572.147	1704.93
572.348	5424.05
572.55	4381.63
572.751	4783.03
572.953	2151.39
573.154	4176.83
573.355	6611.87
573.557	9032.57
573.758	3648.46
573.959	3458
574.161	5008.31
574.362	5159.86
574.563	7263.12
574.765	5831.59
574.966	6263.71
575.167	2477.02
575.368	5419.95
575.569	3849.16
575.771	5854.12
575.972	3068.88
576.173	4078.53
576.374	5518.25
576.575	4981.68
576.776	1561.58
576.978	2513.88
577.179	3314.64
577.38	4297.66
577.581	2671.58
577.782	3355.6
577.983	5192.62
578.184	5628.84
578.385	3374.03
578.586	4107.2
578.787	2690.01
578.988	4084.67
579.189	1762.28
579.39	2636.76
579.591	3675.08
579.792	2665.43
579.993	4645.82
580.194	4594.62
580.395	5897.13
580.596	3892.16
580.796	5024.69
580.997	2843.6
581.198	3724.23
581.399	5634.99
581.6	6116.26
581.801	2644.95
582.001	6605.72
582.202	2366.43
582.403	1584.1
582.604	7656.33
582.804	3552.2
583.005	4000.71
583.206	875.51
583.407	5206.96
583.607	3300.3
583.808	2757.59
584.009	4801.46
584.209	4557.75
584.41	1428.46
584.61	3267.53
584.811	3179.47
585.012	2479.07
585.212	1801.19
585.413	3367.88
585.613	3374.03
585.814	2046.94
586.014	4905.91
586.215	2640.86
586.415	3144.66
586.616	1919.97
586.816	2663.38
587.017	4633.53
587.217	1784.8
587.418	6081.44
587.618	2669.53
587.819	2616.28
588.019	1025.01
588.219	427
588.42	2888.66
588.62	959.47
588.82	982
589.021	1493.99
589.221	3171.28
589.421	1506.28
589.622	3947.46
589.822	1287.15
590.022	5325.74
590.222	3361.74
590.423	1762.28
590.623	1029.1
590.823	2896.85
591.023	2728.92
591.223	721.91
591.423	5727.14
591.624	2587.61
591.824	2190.3
592.024	1129.45
592.224	2137.06
592.424	5399.47
592.624	2294.75
592.824	2882.52
593.024	1819.62
593.224	5149.62
593.424	4535.23
593.624	2425.82
593.824	2264.03
594.024	2917.33
594.224	1008.62
594.424	2558.94
594.624	541.69
594.824	1754.09
595.024	1313.77
595.224	2419.68
595.424	926.71
595.624	746.48
595.824	1080.3
596.023	3840.97
596.223	3773.38
596.423	1469.42
596.623	2556.89
596.823	-27.65
597.023	-648.18
597.222	6179.75
597.422	752.63
597.622	-132.09
597.822	936.95
598.021	2247.65
598.221	795.64
598.421	-586.74
598.62	1281
598.82	545.78
599.02	4826.04
599.219	4248.51
599.419	2507.74
599.618	797.68
599.818	2573.27
600.018	-576.5
600.217	988.14
600.417	3724.23
600.616	1342.44
600.816	1717.22
601.015	1885.16
601.215	961.52
601.414	748.53
601.614	699.38
601.813	-547.83
602.013	2032.61
602.212	1264.62
602.412	293.88
602.611	2649.05
602.81	1940.45
603.01	3226.57
603.209	1424.36
603.408	-1061.87
603.608	2460.63
603.807	1022.96
604.006	5841.83
604.206	123.9
604.405	1383.4
604.604	1727.46
604.803	1416.17
605.003	322.56
605.202	91.13
605.401	885.75
605.6	2358.24
605.8	257.02
605.999	453.63
606.198	1690.6
606.397	1833.96
606.596	832.5
606.795	2788.31
606.994	3554.25
607.193	881.65
607.393	3834.82
607.592	3630.02
607.791	1725.41
607.99	3763.14
608.189	3759.05
608.388	4645.82
608.587	4027.33
608.786	2356.19
608.985	637.94
609.184	2044.9
609.382	3578.83
609.581	2816.98
609.78	4688.82
609.979	4387.77
610.178	2823.12
610.377	2556.89
610.576	558.07
610.775	3148.75
610.973	3318.73
611.172	3875.78
611.371	2655.19
611.57	2264.03
611.769	4832.18
611.967	1553.38
612.166	4514.75
612.365	2630.62
612.564	2984.91
612.762	3007.44
612.961	3355.6
613.16	2202.59
613.358	3075.03
613.557	-11.26
613.756	2943.96
613.954	4248.51
614.153	1403.88
614.351	1305.58
614.55	279.55
614.749	3677.13
614.947	2431.96
615.146	685.05
615.344	2362.33
615.543	-15.36
615.741	2266.08
615.94	2900.95
616.138	822.26
616.337	3075.03
616.535	1084.4
616.733	-58.37
616.932	1371.12
617.13	3509.19
617.329	4834.23
617.527	-967.67
617.725	-1487.85
617.924	-996.34
618.122	404.47
618.32	-713.72
618.519	-1278.96
618.717	2388.96
618.915	2180.06
619.114	1084.4
619.312	-146.43
619.51	474.1
619.708	2147.3
619.906	-541.69
620.105	-523.26
620.303	-300.03
620.501	3843.01
620.699	-1588.2
620.897	883.7
621.095	1995.75
621.293	-900.08
621.492	1784.8
621.69	-25.6
621.888	1022.96
622.086	3255.25
622.284	869.36
622.482	396.28
622.68	805.88
622.878	324.6
623.076	-91.13
623.274	39.94
623.472	381.95
623.67	1379.31
623.868	-2522.07
624.065	867.31
624.263	502.78
624.461	918.51
624.659	-582.65
624.857	3003.35
625.055	2464.73
625.253	-369.66
625.45	-82.94
625.648	60.42
625.846	289.79
626.044	353.27
626.242	447.48
626.439	2065.38
626.637	654.33
626.835	-78.85
627.032	1813.48
627.23	-1428.46
627.428	3294.16
627.626	1442.79
627.823	371.71
628.021	2767.83
628.218	1987.55
628.416	1289.2
628.614	-1281
628.811	-1483.75
629.009	-633.85
629.206	-132.09
629.404	-918.51
629.601	-9.22
629.799	-1811.43
629.996	3255.25
630.194	1061.87
630.391	877.55
630.589	-611.32
630.786	1860.58
630.984	375.8
631.181	-2065.38
631.378	-572.41
631.576	1868.77
631.773	-2040.8
631.97	-1328.11
632.168	-1606.63
632.365	119.81
632.562	377.85
632.76	-916.47
632.957	310.27
633.154	50.18
633.352	504.82
633.549	-668.66
633.746	1985.51
633.943	828.4
634.14	-689.14
634.338	2280.41
634.535	-396.28
634.732	-150.53
634.929	2669.53
635.126	599.03
635.323	87.04
635.52	2227.17
635.717	490.49
635.915	-429.05
636.112	-62.46
636.309	-1852.39
636.506	-644.09
636.703	-2237.41
636.9	-336.89
637.097	5051.31
637.294	99.33
637.491	-961.52
637.688	2212.83
637.884	-1092.59
638.081	-723.96
638.278	-291.84
638.475	-234.49
638.672	-486.39
638.869	-726
639.066	5579.69
639.263	769.01
639.459	666.61
639.656	-2434.01
639.853	-1698.79
640.05	7840.65
640.246	1993.7
640.443	-222.2
640.64	-2913.24
640.837	383.99
641.033	-1823.72
641.23	-189.44
641.427	-132.09
641.623	766.96
641.82	-562.17
642.017	-1158.13
642.213	-566.26
642.41	-447.48
642.606	1059.82
642.803	840.69
643	263.16
643.196	-1356.78
643.393	2096.1
643.589	271.36
643.786	-1178.61
643.982	4285.37
644.179	1321.96
644.375	-895.99
644.571	-414.71
644.768	-1463.27
644.964	-244.73
645.161	-465.91
645.357	2591.7
645.553	451.58
645.75	2092
645.946	156.67
646.143	-293.88
646.339	400.38
646.535	248.83
646.731	1377.26
646.928	-205.82
647.124	-1651.69
647.32	2329.56
647.516	1911.78
647.713	-1438.7
647.909	-160.77
648.105	-545.78
648.301	-2730.97
648.497	386.04
648.693	-545.78
648.89	-500.73
649.086	-218.11
649.282	-1041.39
649.478	-556.02
649.674	211.96
649.87	1686.5
650.066	1086.45
650.262	-1197.04
650.458	1686.5
650.654	-1293.29
650.85	15.36
651.046	-429.05
651.242	-64.51
651.438	259.07
651.634	-1623.02
651.83	-822.26
652.026	613.37
652.222	-152.57
652.417	-420.86
652.613	1137.65
652.809	-1537
653.005	-922.61
653.201	2319.32
653.397	-1149.93
653.592	-218.11
653.788	-1278.96
653.984	1573.86
654.18	4649.91
654.375	-861.17
654.571	-107.52
654.767	-379.9
654.962	-959.47
655.158	-2925.52
655.354	-848.88
655.549	992.24
655.745	1135.6
655.941	3431.37
656.136	-1018.86
656.332	-1479.66
656.527	-152.57
656.723	1422.31
656.918	-1868.77
657.114	-750.58
657.309	-275.45
657.505	818.16
657.7	1326.06
657.896	-1377.26
658.091	-1188.85
658.287	-793.59
658.482	-2259.93
658.678	-1213.42
658.873	320.51
659.068	3091.41
659.264	-705.53
659.459	35238.37
659.654	625.65
659.85	2216.93
660.045	-1577.96
660.24	1919.97
660.436	5233.58
660.631	-189.44
660.826	1926.11
661.021	189.44
661.217	2419.68
661.412	-924.66
661.607	-2167.77
661.802	-582.65
661.997	-519.16
662.192	437.24
662.388	-2665.43
662.583	-644.09
662.778	416.76
662.973	-1811.43
663.168	-2503.64
663.363	-1160.17
663.558	3883.97
663.753	1027.06
663.948	-1926.11
664.143	-1647.59
664.338	187.39
664.533	838.64
664.728	-635.89
664.923	-1123.31
665.118	109.57
665.313	-850.93
665.508	1092.59
665.703	1305.58
665.897	1203.18
666.092	400.38
666.287	160.77
666.482	-734.2
666.677	1850.34
666.872	1516.52
667.066	-988.14
667.261	-1209.33
667.456	-33.79
667.651	1326.06
667.845	1848.29
668.04	343.03
668.235	-1479.66
668.429	1166.32
668.624	50.18
668.819	-674.81
669.013	-1698.79
669.208	594.93
669.402	-1637.35
669.597	-156.67
669.792	-887.79
669.986	2589.66
670.181	-2178.01
670.375	250.88
670.57	-1782.76
670.764	-1086.45
670.959	-580.6
671.153	-33.79
671.348	-396.28
671.542	2487.26
671.737	-2114.53
671.931	-2661.34
672.125	353.27
672.32	1620.97
672.514	1094.64
672.709	-1704.93
672.903	-181.25
673.097	-742.39
673.291	-1330.16
673.486	1367.02
673.68	64.51
673.874	-1020.91
674.069	-1072.11
674.263	678.9
674.457	1244.14
674.651	674.81
674.845	-789.49
675.04	3400.65
675.234	-1211.37
675.428	-209.92
675.622	-1430.51
675.816	-1809.38
676.01	-773.11
676.204	-121.85
676.398	80.89
676.592	-898.03
676.787	-797.68
676.981	123.9
677.175	64.51
677.369	-3898.31
677.563	-142.33
677.757	-269.31
677.95	-1336.3
678.144	-2888.66
678.338	-938.99
678.532	760.82
678.726	-2497.5
678.92	2843.6
679.114	138.24
679.308	119.81
679.502	-4539.32
679.695	-1985.51
679.889	-508.92
680.083	-3374.03
680.277	-2341.85
680.471	-422.91
680.664	-1600.49
680.858	334.84
681.052	-228.35
681.245	-1100.78
681.439	539.64
681.633	-859.12
681.826	-429.05
682.02	-990.19
682.214	685.05
682.407	-1186.8
682.601	-906.23
682.795	-564.22
682.988	-580.6
683.182	-1078.26
683.375	-472.06
683.569	-766.96
683.762	875.51
683.956	1711.08
684.149	1616.87
684.343	1749.99
684.536	-1231.85
684.73	109.57
684.923	-2393.05
685.116	-1928.16
685.31	2132.96
685.503	877.55
685.696	-361.47
685.89	865.27
686.083	-1709.03
686.276	-775.16
686.47	-37.89
686.663	-648.18
686.856	-427
687.05	1199.09
687.243	-693.24
687.436	1190.89
687.629	1698.79
687.822	553.98
688.016	-973.81
688.209	-1029.1
688.402	562.17
688.595	-93.18
688.788	-2171.87
688.981	-1688.55
689.174	2554.84
689.367	64.51
689.561	-687.09
689.754	-2716.63
689.947	-463.86
690.14	-37.89
690.333	-3691.46
690.526	-877.55
690.719	1588.2
690.912	1764.33
691.104	62.46
691.297	-283.64
691.49	158.72
691.683	-1043.44
691.876	-2995.15
692.069	2509.79
692.262	-259.07
692.455	300.03
692.647	-523.26
692.84	-1663.97
693.033	609.27
693.226	496.63
693.419	-1520.62
693.611	-764.92
693.804	44.03
693.997	510.97
694.189	-295.93
694.382	-1332.2
694.575	3001.3
694.767	-171.01
694.96	-1414.12
695.153	-345.08
695.345	203.77
695.538	1616.87
695.731	232.44
695.923	-635.89
696.116	121.85
696.308	1479.66
696.501	56.32
696.693	2055.14
696.886	-1014.77
697.078	-2302.94
697.271	451.58
697.463	906.23
697.655	-203.77
697.848	281.6
698.04	-1156.08
698.233	-2182.11
698.425	-562.17
698.617	1268.72
698.81	-1307.63
699.002	-959.47
699.194	1627.11
699.387	875.51
699.579	-1131.5
699.771	-1971.17
699.963	-3492.81
700.156	-1860.58
700.348	891.89
700.54	-9.22
700.732	-1059.82
700.924	-705.53
701.117	-809.97
701.309	-1194.99
701.501	-2218.97
701.693	3994.56
701.885	-934.9
702.077	1164.27
702.269	470.01
702.461	1852.39
702.653	89.09
702.845	-637.94
703.037	431.1
703.229	2001.89
703.421	-998.38
703.613	-1364.97
703.805	3285.97
703.997	355.32
704.189	1125.36
704.381	-828.4
704.573	3511.24
704.765	-719.86
704.957	1305.58
705.148	-93.18
705.34	-998.38
705.532	23.55
705.724	-1096.69
705.916	-1938.4
706.107	1653.73
706.299	312.32
706.491	1883.11
706.682	1369.07
706.874	-656.37
707.066	-439.29
707.258	-1475.56
707.449	-474.1
707.641	5489.58
707.832	-44.03
708.024	-910.32
708.216	-388.09
708.407	773.11
708.599	-513.02
708.79	1737.7
708.982	-1479.66
709.173	-564.22
709.365	-998.38
709.556	-302.08
709.748	-558.07
709.939	300.03
710.131	484.34
710.322	-2251.74
710.514	2380.76
710.705	-699.38
710.896	683
711.088	517.11
711.279	396.28
711.47	1848.29
711.662	1270.76
711.853	-1407.98
712.044	-2376.67
712.236	146.43
712.427	64.51
712.618	-2546.65
712.809	-1172.46
713	-457.72
713.192	1321.96
713.383	-781.3
713.574	379.9
713.765	144.38
713.956	-830.45
714.147	1960.93
714.338	-1684.45
714.53	1487.85
714.721	2413.53
714.912	-1147.89
715.103	-2130.91
715.294	639.99
715.485	1209.33
715.676	-2329.56
715.867	-2816.98
716.058	-607.22
716.249	1465.32
716.44	-220.16
716.63	-1573.86
716.821	-394.23
717.012	1084.4
717.203	-1289.2
717.394	-1055.73
717.585	-2573.27
717.776	-691.19
717.966	-1139.69
718.157	-1412.07
718.348	533.5
718.539	-128
718.73	916.47
718.92	2161.63
719.111	-852.98
719.302	330.75
719.492	-1154.03
719.683	611.32
719.874	-1258.48
720.064	3855.3
720.255	-2051.04
720.446	-349.18
720.636	1450.99
720.827	1375.21
721.017	340.99
721.208	-654.33
721.398	-963.57
721.589	752.63
721.779	287.74
721.97	-4092.87
722.16	-1426.41
722.351	-2628.57
722.541	-1113.07
722.732	1160.17
722.922	963.57
723.112	1682.41
723.303	-1795.04
723.493	-1274.86
723.683	1141.74
723.874	2294.75
724.064	490.49
724.254	1946.59
724.445	-1074.16
724.635	2288.61
724.825	-2868.18
725.015	-803.83
725.206	-699.38
725.396	1354.73
725.586	-1299.44
725.776	754.68
725.966	3480.52
726.157	1162.22
726.347	1846.24
726.537	-336.89
726.727	2028.51
726.917	-1240.05
727.107	-902.13
727.297	-2915.28
727.487	1854.44
727.677	-1070.06
727.867	-37.89
728.057	-297.98
728.247	254.97
728.437	736.24
728.627	-930.8
728.817	-703.48
729.007	205.82
729.197	699.38
729.387	-742.39
729.576	-250.88
729.766	1569.77
729.956	-486.39
730.146	-918.51
730.336	-2032.61
730.525	-271.36
730.715	-1221.61
730.905	-140.29
731.095	-762.87
731.284	711.67
731.474	1539.05
731.664	-1008.62
731.853	-2565.08
732.043	-1305.58
732.233	-1776.61
732.422	1317.87
732.612	-1354.73
732.802	416.76
732.991	156.67
733.181	-3091.41
733.37	-1629.16
733.56	-953.33
733.749	904.18
733.939	-2114.53
734.128	850.93
734.318	2450.39
734.507	-795.64
734.697	-2479.07
734.886	1364.97
735.076	-1668.07
735.265	1709.03
735.454	183.29
735.644	-1663.97
735.833	-1328.11
736.022	-111.61
736.212	-1031.15
736.401	-617.46
736.59	1078.26
736.779	-599.03
736.969	-2190.3
737.158	72.7
737.347	-1356.78
737.536	-328.7
737.726	-1448.94
737.915	1207.28
738.104	576.5
738.293	-764.92
738.482	-171.01
738.671	-1319.92
738.86	-2882.52
739.049	861.17
739.238	-1272.81
739.427	-764.92
739.616	-1907.68
739.806	-1733.61
739.995	-3064.79
740.183	-2038.75
740.372	-119.81
740.561	-607.22
740.75	-4285.37
740.939	138.24
741.128	187.39
741.317	1063.92
741.506	-1010.67
741.695	173.05
741.884	873.46
742.072	1688.55
742.261	-472.06
742.45	-441.34
742.639	533.5
742.828	345.08
743.016	-742.39
743.205	-1659.88
743.394	-1463.27
743.582	1534.95
743.771	25.6
743.96	740.34
744.148	-9.22
744.337	152.57
744.526	619.51
744.714	-873.46
744.903	4015.04
745.091	113.66
745.28	2098.14
745.468	1037.3
745.657	803.83
745.845	527.35
746.034	-609.27
746.222	236.54
746.411	556.02
746.599	984.05
746.788	996.34
746.976	-551.93
747.165	62.46
747.353	791.54
747.541	4686.78
747.73	-1502.19
747.918	2030.56
748.106	1715.17
748.295	2364.38
748.483	1590.25
748.671	1041.39
748.859	1065.97
749.048	2653.14
749.236	738.29
749.424	392.19
749.612	2655.19
749.8	752.63
749.989	1055.73
750.177	1803.24
750.365	2161.63
750.553	1969.12
750.741	-609.27
750.929	5305.26
751.117	1151.98
751.305	1973.22
751.493	902.13
751.681	23.55
751.869	1360.88
752.057	2575.32
752.245	1053.68
752.433	3183.57
752.621	1993.7
752.809	3279.82
752.997	3113.94
753.185	2489.31
753.373	1686.5
753.56	1399.79
753.748	2872.28
753.936	1993.7
754.124	2440.15
754.312	1416.17
754.499	4201.41
754.687	3058.64
754.875	3623.88
755.063	1418.22
755.25	3427.28
755.438	4217.79
755.626	3259.34
755.813	726
756.001	3349.45
756.189	1315.82
756.376	1649.64
756.564	2341.85
756.751	4395.96
756.939	914.42
757.127	4701.11
757.314	2374.62
757.502	998.38
757.689	4260.8
757.877	3490.76
758.064	3677.13
758.251	1448.94
758.439	3685.32
758.626	4766.65
758.814	1735.65
759.001	4230.08
759.188	4369.34
759.376	650.23
759.563	3449.8
759.75	3859.4
759.938	1893.35
760.125	2055.14
760.312	2636.76
760.5	2229.21
760.687	3482.57
760.874	1584.1
761.061	3552.2
761.248	140.29
761.436	6079.4
761.623	2272.22
761.81	2761.69
761.997	3713.99
762.184	1999.84
762.371	1905.63
762.558	2374.62
762.745	4139.97
762.932	2511.83
763.119	3036.11
763.306	2638.81
763.493	2851.8
763.68	2958.29
763.867	4219.84
764.054	1199.09
764.241	1838.05
764.428	4199.36
764.615	2450.39
764.802	2401.24
764.989	1432.55
765.176	2694.1
765.362	3650.5
765.549	1766.37
765.736	9986.92
765.923	4209.6
766.11	4182.98
766.296	2485.21
766.483	62.46
766.67	2753.49
766.857	3789.77
767.043	1518.57
767.23	3081.17
767.417	4158.4
767.603	3367.88
767.79	2120.67
767.976	4893.62
768.163	4357.05
768.35	3419.08
768.536	2264.03
768.723	2182.11
768.909	4350.91
769.096	5036.98
769.282	2302.94
769.469	1819.62
769.655	5182.38
769.842	3292.11
770.028	1045.49
770.214	2626.52
770.401	2819.03
770.587	1911.78
770.774	-326.65
770.96	-502.78
771.146	3048.4
771.333	3103.7
771.519	1858.53
771.705	2868.18
771.891	1422.31
772.078	7342.99
772.264	3613.64
772.45	2067.42
772.636	2495.45
772.822	1801.19
773.009	5776.3
773.195	3158.99
773.381	3052.5
773.567	3648.46
773.753	1717.22
773.939	777.2
774.125	652.28
774.311	2567.13
774.497	895.99
774.683	1598.44
774.869	4148.16
775.055	5399.47
775.241	1270.76
775.427	2956.24
775.613	1383.4
775.799	4473.79
775.985	1250.28
776.171	2513.88
776.357	2679.77
776.543	2567.13
776.729	1637.35
776.914	2380.76
777.1	3726.28
777.286	6306.72
777.472	2233.31
777.657	1891.3
777.843	4971.44
778.029	4998.07
778.215	2802.65
778.4	2358.24
778.586	5366.7
778.772	3892.16
778.957	3533.77
779.143	1156.08
779.329	2335.71
779.514	1436.65
779.7	2462.68
779.885	234.49
780.071	2915.28
780.256	2997.2
780.442	2483.16
780.627	441.34
780.813	3673.03
780.998	4350.91
781.184	3247.05
781.369	1158.13
781.555	3611.59
781.74	2474.97
781.925	4414.4
782.111	1526.76
782.296	2421.72
782.481	2937.81
782.667	2507.74
782.852	3836.87
783.037	2325.47
783.223	1926.11
783.408	2268.13
783.593	3609.54
783.778	1588.2
783.963	3118.03
784.149	3576.78
784.334	2350.04
784.519	2456.54
784.704	1106.93
784.889	2952.15
785.074	1362.92
785.259	2227.17
785.444	5147.57
785.629	1086.45
785.814	553.98
785.999	2149.34
786.184	5569.45
786.369	1743.85
786.554	414.71
786.739	3759.05
786.924	3242.96
787.109	2780.12
787.294	4158.4
787.479	4066.24
787.664	2544.6
787.849	4027.33
788.034	3664.84
788.218	2599.9
788.403	2878.42
788.588	3888.07
788.773	3027.92
788.957	1821.67
789.142	4221.89
789.327	2946
789.512	2186.21
789.696	5757.86
789.881	6511.52
790.066	2474.97
790.25	5505.96
790.435	2878.42
790.619	4637.63
790.804	3609.54
790.989	3173.33
791.173	5925.8
791.358	3914.69
791.542	2130.91
791.727	2577.37
791.911	2481.11
792.096	2040.8
792.28	2221.02
792.465	2558.94
792.649	2257.89
792.833	3619.78
793.018	2407.39
793.202	3464.14
793.386	5596.07
793.571	4576.19
793.755	3179.47
793.939	2286.56
794.124	2862.04
794.308	3488.71
794.492	2485.21
794.676	1872.87
794.861	3003.35
795.045	4201.41
795.229	1111.02
795.413	4146.11
795.597	2585.56
795.781	3171.28
795.966	5790.63
796.15	3236.81
796.334	7218.07
796.518	5573.55
796.702	2315.23
796.886	3920.84
797.07	5645.23
797.254	4537.27
797.438	2827.22
797.622	2685.91
797.806	3445.71
797.99	4686.78
798.174	3627.98
798.358	5725.1
798.541	5393.33
798.725	6388.64
798.909	3507.15
799.093	4203.46
799.277	3847.11
799.461	5086.13
799.644	783.35
799.828	3589.07
800.012	5993.38
800.196	3621.83
800.379	3550.15
800.563	2196.45
800.747	5397.42
800.93	3435.47
801.114	3161.04
801.298	2628.57
801.481	5827.5
801.665	5802.92
801.848	2048.99
802.032	3412.94
802.216	7478.16
802.399	3406.8
802.583	2143.2
802.766	1620.97
802.95	4277.18
803.133	5659.56
803.317	2194.4
803.5	2153.44
803.683	3830.73
803.867	2157.54
804.05	4834.23
804.233	5749.67
804.417	6519.71
804.6	3462.09
804.783	4510.65
804.967	5602.22
805.15	4443.07
805.333	4123.59
805.517	4631.48
805.7	2290.65
805.883	3920.84
806.066	5374.89
806.249	5747.62
806.432	2282.46
806.616	4279.23
806.799	2577.37
806.982	3240.91
807.165	4570.04
807.348	4436.92
807.531	2991.06
807.714	3650.5
807.897	4506.56
808.08	4934.58
808.263	5632.94
808.446	5432.24
808.629	4309.95
808.812	3675.08
808.995	4174.78
809.178	6249.38
809.361	5675.95
809.544	5598.12
809.726	6720.41
809.909	5852.07
810.092	4955.06
810.275	5630.89
810.458	7523.21
810.64	5684.14
810.823	5297.07
811.006	4567.99
811.189	6785.94
811.371	3482.57
811.554	4281.28
811.737	5768.1
811.919	5938.09
812.102	3675.08
812.285	2565.08
812.467	5364.65
812.65	3976.13
812.832	3234.77
813.015	5903.27
813.197	5567.4
813.38	5772.2
813.562	6380.45
813.745	2550.75
813.927	2436.06
814.11	5483.44
814.292	3726.28
814.475	2657.24
814.657	3621.83
814.839	4877.24
815.022	2788.31
815.204	7060.37
815.386	6325.15
815.569	5620.65
815.751	2079.71
815.933	5602.22
816.116	5209.01
816.298	5108.66
816.48	3488.71
816.662	3034.07
816.844	4512.7
817.027	4002.75
817.209	3105.74
817.391	2444.25
817.573	3550.15
817.755	3539.91
817.937	4105.15
818.119	3197.9
818.301	3111.89
818.483	3781.57
818.665	3034.07
818.847	4899.77
819.029	4193.22
819.211	2489.31
819.393	3886.02
819.575	6501.28
819.757	5782.44
819.939	4527.03
820.121	3929.03
820.303	4193.22
820.485	6953.88
820.666	6413.21
820.848	6624.15
821.03	3765.19
821.212	5733.29
821.394	1987.55
821.575	4514.75
821.757	6052.77
821.939	4359.1
822.121	4596.67
822.302	6894.49
822.484	5559.21
822.666	1825.76
822.847	3152.85
823.029	1264.62
823.21	5245.87
823.392	1995.75
823.573	3746.76
823.755	2589.66
823.937	2577.37
824.118	2890.71
824.3	8579.97
824.481	2952.15
824.662	3187.66
824.844	3941.32
825.025	5049.27
825.207	2038.75
825.388	3775.43
825.569	2722.77
825.751	3034.07
825.932	6380.45
826.113	2038.75
826.295	5151.67
826.476	4524.99
826.657	3869.64
826.839	3253.2
827.02	4633.53
827.201	7199.63
827.382	3748.81
827.563	4758.46
827.744	3513.29
827.926	4348.86
828.107	5745.58
828.288	2542.55
828.469	4477.88
828.65	4991.92
828.831	1836
829.012	3791.81
829.193	5688.23
829.374	3052.5
829.555	5985.19
829.736	8924.02
829.917	6491.04
830.098	5372.85
830.279	1663.97
830.46	2788.31
830.641	3785.67
830.822	3793.86
831.002	5551.02
831.183	2827.22
831.364	5149.62
831.545	4819.89
831.726	3873.73
831.906	3650.5
832.087	5016.5
832.268	4561.85
832.449	5706.66
832.629	1647.59
832.81	2890.71
832.991	2708.44
833.171	4346.81
833.352	4041.67
833.532	5573.55
833.713	2896.85
833.894	3400.65
834.074	1545.19
834.255	2692.05
834.435	2730.97
834.616	2677.72
834.796	3228.62
834.977	4527.03
835.157	6695.83
835.338	2444.25
835.518	1534.95
835.698	3722.18
835.879	2397.15
836.059	3544.01
836.239	3584.97
836.42	3435.47
836.6	3894.21
836.78	1473.51
836.961	2747.35
837.141	4801.46
837.321	2048.99
837.501	6648.73
837.682	2614.23
837.862	3185.62
838.042	8823.67
838.222	2730.97
838.402	2638.81
838.582	3169.23
838.763	3920.84
838.943	2939.86
839.123	5333.93
839.303	3695.56
839.483	4901.81
839.663	867.31
839.843	13472.56
840.023	5065.65
840.203	4875.19
840.383	2835.41
840.563	2499.55
840.742	3460.04
840.922	2378.72
841.102	4279.23
841.282	3322.83
841.462	3400.65
841.642	2882.52
841.822	1766.37
842.001	795.64
842.181	4045.76
842.361	4217.79
842.541	4821.94
842.72	3951.56
842.9	2759.64
843.08	3537.87
843.259	2853.84
843.439	2825.17
843.619	2556.89
843.798	3247.05
843.978	4225.98
844.157	2415.58
844.337	4361.15
844.517	2624.47
844.696	5583.79
844.876	4344.77
845.055	1840.1
845.235	4099.01
845.414	3275.73
845.593	1760.23
845.773	2350.04
845.952	517.11
846.132	1252.33
846.311	1657.83
846.49	3847.11
846.67	3869.64
846.849	2276.32
847.028	1686.5
847.208	4123.59
847.387	1881.06
847.566	5483.44
847.745	1825.76
847.924	3922.88
848.104	3969.99
848.283	3632.07
848.462	4574.14
848.641	5114.8
848.82	3038.16
848.999	5467.05
849.178	2444.25
849.358	4365.25
849.537	3156.94
849.716	2034.66
849.895	1453.03
850.074	5022.64
850.253	5143.47
850.432	3462.09
850.61	2821.08
850.789	2415.58
850.968	5104.56
851.147	4774.84
851.326	1958.88
851.505	2956.24
851.684	3441.61
851.863	4934.58
852.041	3505.1
852.22	2700.25
852.399	2073.57
852.578	3955.65
852.756	1002.48
852.935	2491.35
853.114	4477.88
853.293	1625.06
853.471	5815.21
853.65	3447.76
853.828	2378.72
854.007	1879.01
854.186	3367.88
854.364	4555.71
854.543	3736.52
854.721	2436.06
854.9	4086.72
855.078	5227.44
855.257	2370.52
855.435	87.04
855.614	3417.04
855.792	2528.22
855.971	2661.34
856.149	1192.94
856.327	3812.29
856.506	3146.7
856.684	2304.99
856.862	1915.87
857.041	-250.88
857.219	4510.65
857.397	1967.07
857.576	2243.55
857.754	2069.47
857.932	4115.39
858.11	2630.62
858.288	2507.74
858.467	805.88
858.645	945.14
858.823	2571.22
859.001	3482.57
859.179	1274.86
859.357	1997.79
859.535	3757
859.713	4307.9
859.891	3908.55
860.069	6337.44
860.247	1995.75
860.425	797.68
860.603	3439.56
860.781	4805.56
860.959	3298.25
861.137	609.27
861.315	1469.42
861.493	3093.46
861.67	4318.14
861.848	4070.34
862.026	2245.6
862.204	2079.71
862.382	2388.96
862.559	2540.51
862.737	3722.18
862.915	4121.54
863.093	2216.93
863.27	4494.27
863.448	4285.37
863.626	3081.17
863.803	2460.63
863.981	1684.45
864.158	300.03
864.336	1741.8
864.514	1465.32
864.691	1072.11
864.869	1817.57
865.046	1162.22
865.224	2657.24
865.401	3945.41
865.578	1645.54
865.756	4899.77
865.933	287.74
866.111	4037.57
866.288	1309.68
866.465	2118.62
866.643	1178.61
866.82	1762.28
866.997	1715.17
867.175	2163.68
867.352	1864.68
867.529	-332.79
867.706	1453.03
867.884	2608.09
868.061	2270.17
868.238	1733.61
868.415	975.86
868.592	1532.9
868.77	1504.23
868.947	3515.34
869.124	1616.87
869.301	476.15
869.478	2601.94
869.655	-422.91
869.832	2532.31
870.009	4922.29
870.186	4899.77
870.363	2470.87
870.54	2538.46
870.717	1952.74
870.894	2216.93
871.071	3064.79
871.247	570.36
871.424	1276.91
871.601	2016.23
871.778	1424.36
871.955	1885.16
872.132	2739.16
872.308	2253.79
872.485	2116.58
872.662	1500.14
872.839	4115.39
873.015	1375.21
873.192	2597.85
873.369	1864.68
873.545	1524.71
873.722	2462.68
873.898	2241.5
874.075	1688.55
874.252	2261.98
874.428	1952.74
874.605	2304.99
874.781	-402.43
874.958	988.14
875.134	2927.57
875.311	2681.82
875.487	2698.2
875.663	4205.5
875.84	2141.15
876.016	3167.18
876.193	2802.65
876.369	1375.21
876.545	1158.13
876.722	922.61
876.898	1952.74
877.074	2440.15
877.25	3185.62
877.427	7426.96
877.603	1733.61
877.779	1485.8
877.955	1805.28
878.132	4197.31
878.308	3711.94
878.484	5221.3
878.66	734.2
878.836	2368.48
879.012	2110.43
879.188	2581.46
879.364	1987.55
879.54	1455.08
879.716	457.72
879.892	2194.4
880.068	3599.31
880.244	5471.15
880.42	967.67
880.596	1469.42
880.772	1346.54
880.948	1047.54
881.124	2685.91
881.3	6525.85
881.475	1897.44
881.651	1747.94
881.827	1491.95
882.003	1840.1
882.178	-134.14
882.354	1455.08
882.53	1111.02
882.706	2001.89
882.881	2622.42
883.057	623.61
883.233	1831.91
883.408	3685.32
883.584	1313.77
883.759	326.65
883.935	54.27
884.111	152.57
884.286	1385.45
884.462	-207.87
884.637	1121.26
884.813	244.73
884.988	1561.58
885.164	5030.84
885.339	488.44
885.514	3249.1
885.69	916.47
885.865	175.1
886.04	2438.11
886.216	1078.26
886.391	2665.43
886.566	1702.89
886.742	-160.77
886.917	1932.26
887.092	3810.25
887.267	-82.94
887.443	-252.92
887.618	549.88
887.793	977.91
887.968	2032.61
888.143	181.25
888.318	1807.33
888.494	2890.71
888.669	1680.36
888.844	1631.21
889.019	1510.38
889.194	1342.44
889.369	957.43
889.544	1088.5
889.719	2939.86
889.894	4182.98
890.069	2284.51
890.243	2601.94
890.418	1334.25
890.593	836.6
890.768	1807.33
890.943	3576.78
891.118	1367.02
891.293	1776.61
891.467	666.61
891.642	4817.85
891.817	1166.32
891.992	2151.39
892.166	828.4
892.341	2896.85
892.516	1666.02
892.69	2239.45
892.865	-179.2
893.04	1584.1
893.214	3202
893.389	2419.68
893.563	4524.99
893.738	4850.61
893.912	1053.68
894.087	2151.39
894.261	3124.18
894.436	627.7
894.61	4430.78
894.785	1795.04
894.959	1735.65
895.134	3396.56
895.308	578.55
895.482	2827.22
895.657	402.43
895.831	791.54
896.005	7531.41
896.18	1137.65
896.354	1915.87
896.528	-44.03
896.702	1917.92
896.877	3703.75
897.051	123.9
897.225	2051.04
897.399	2251.74
897.573	900.08
897.747	2008.03
897.922	1616.87
898.096	3509.19
898.27	222.2
898.444	711.67
898.618	1876.96
898.792	1768.42
898.966	1833.96
899.14	2589.66
899.314	2180.06
899.488	3462.09
899.662	1629.16
899.835	1909.73
900.009	1520.62
900.183	-91.13
900.357	4737.98
900.531	660.47
900.705	295.93
900.878	-295.93
901.052	349.18
901.226	2180.06
901.4	1762.28
901.573	109.57
901.747	-189.44
901.921	844.79
902.095	1276.91
902.268	2524.12
902.442	-68.61
902.615	-1184.75
902.789	2024.42
902.963	6468.51
903.136	449.53
903.31	2837.46
903.483	-797.68
903.657	2259.93
903.83	758.77
904.004	-2087.9
904.177	547.83
904.35	-158.72
904.524	-1682.41
904.697	300.03
904.871	422.91
905.044	1485.8
905.217	4862.9
905.391	3318.73
905.564	1068.02
905.737	564.22
905.91	-166.91
906.084	-2106.34
906.257	553.98
906.43	-2255.84
906.603	181.25
906.776	-3269.58
906.949	-1113.07
907.123	-1168.37
907.296	-349.18
907.469	1973.22
907.642	-635.89
907.815	1301.48
907.988	-39.94
908.161	-967.67
908.334	-1278.96
908.507	785.4
908.68	519.16
908.853	5.12
909.026	-715.77
909.199	-490.49
909.371	2368.48
909.544	1469.42
909.717	-31.74
909.89	-1080.3
910.063	-1215.47
910.236	-146.43
910.408	189.44
910.581	-2124.77
910.754	-2321.37
910.927	-2720.73
911.099	207.87
911.272	553.98
911.445	125.95
911.617	-697.33
911.79	1553.38
911.962	-377.85
912.135	-869.36
912.308	117.76
912.48	-1770.47
912.653	-1328.11
912.825	-852.98
912.998	-766.96
913.17	1250.28
913.343	1426.41
913.515	-719.86
913.687	-1641.45
913.86	117.76
914.032	1614.82
914.205	-578.55
914.377	-117.76
914.549	-3335.12
914.721	519.16
914.894	-1520.62
915.066	-439.29
915.238	-1629.16
915.41	1979.36
915.583	230.4
915.755	-1743.85
915.927	21.5
916.099	1115.12
916.271	-766.96
916.443	-1805.28
916.616	-2055.14
916.788	3566.54
916.96	2118.62
917.132	-4539.32
917.304	-203.77
917.476	1551.34
917.648	214.01
917.82	-3169.23
917.992	1403.88
918.164	863.22
918.335	293.88
918.507	986.1
918.679	-2413.53
918.851	1555.43
919.023	-490.49
919.195	-33.79
919.366	-2167.77
919.538	-3093.46
919.71	-1629.16
919.882	-1469.42
920.053	-1831.91
920.225	-1098.74
920.397	1272.81
920.568	-1684.45
920.74	-1356.78
920.912	-1094.64
921.083	-1639.4
921.255	-2051.04
921.426	-2079.71
921.598	-140.29
921.77	-998.38
921.941	-1917.92
922.113	-1907.68
922.284	1074.16
922.455	-1119.21
922.627	-2304.99
922.798	-1962.98
922.97	-1520.62
923.141	-1332.2
923.312	-4019.14
923.484	465.91
923.655	-2120.67
923.826	654.33
923.998	-1137.65
924.169	621.56
924.34	-1666.02
924.511	-68.61
924.683	-431.1
924.854	-1217.52
925.025	-136.19
925.196	699.38
925.367	715.77
925.538	-66.56
925.709	-398.33
925.881	330.75
926.052	-1367.02
926.223	-867.31
926.394	885.75
926.565	-1063.92
926.736	-4312
926.907	-1883.11
927.078	324.6
927.248	3750.85
927.419	523.26
927.59	-2896.85
927.761	799.73
927.932	846.84
928.103	-482.3
928.274	-1358.83
928.444	-467.96
928.615	-1090.54
928.786	-1313.77
928.957	-2110.43
929.127	-1240.05
929.298	-52.22
929.469	-1321.96
929.639	-599.03
929.81	-367.61
929.981	-193.53
930.151	185.34
930.322	2835.41
930.492	463.86
930.663	3150.8
930.833	-1704.93
931.004	-318.46
931.174	211.96
931.345	-3.07
931.515	-1817.57
931.686	-392.19
931.856	1883.11
932.027	-1895.4
932.197	850.93
932.367	-1729.51
932.538	1108.98
932.708	-1121.26
932.878	23.55
933.048	-807.92
933.219	-1074.16
933.389	1625.06
933.559	-1569.77
933.729	-1850.34
933.9	232.44
934.07	-1956.83
934.24	-2298.84
934.41	44.03
934.58	-121.85
934.75	562.17
934.92	-3122.13
935.09	101.37
935.26	-1127.41
935.43	2149.34
935.6	-1029.1
935.77	523.26
935.94	312.32
936.11	-1272.81
936.28	-1600.49
936.45	920.56
936.62	-58.37
936.79	519.16
936.96	-683
937.129	-912.37
937.299	-123.9
937.469	-80.89
937.639	-154.62
937.808	-996.34
937.978	-2221.02
938.148	1094.64
938.317	-187.39
938.487	148.48
938.657	-1373.16
938.826	-1424.36
938.996	-676.85
939.166	-4565.95
939.335	-2085.86
939.505	15.36
939.674	-1266.67
939.844	-1985.51
940.013	193.53
940.183	-2190.3
940.352	-1934.31
940.522	-791.54
940.691	-1096.69
940.86	531.45
941.03	-1111.02
941.199	-58.37
941.368	318.46
941.538	1178.61
941.707	-1987.55
941.876	-703.48
942.046	740.34
942.215	-193.53
942.384	-2149.34
942.553	-621.56
942.722	-766.96
942.892	1483.75
943.061	-2859.99
943.23	289.79
943.399	3396.56
943.568	-572.41
943.737	1543.14
943.906	-173.05
944.075	-1563.62
944.244	1203.18
944.413	-756.72
944.582	-2642.9
944.751	-187.39
944.92	-566.26
945.089	412.67
945.258	-814.07
945.427	-668.66
945.596	-830.45
945.764	-693.24
945.933	-1213.42
946.102	996.34
946.271	-603.13
946.44	-814.07
946.608	-1348.59
946.777	-975.86
946.946	-437.24
947.114	1840.1
947.283	-984.05
947.452	-1649.64
947.62	-1324.01
947.789	793.59
947.958	-1086.45
948.126	199.68
948.295	191.49
948.463	-994.29
948.632	-1178.61
948.8	-662.52
948.969	-1676.26
949.137	-744.44
949.305	-1672.17
949.474	773.11
949.642	578.55
949.811	496.63
949.979	-326.65
950.147	-2014.18
950.316	-1993.7
950.484	-2243.55
950.652	-1473.51
950.82	1221.61
950.989	-3472.33
951.157	-1725.41
951.325	-2096.1
951.493	1493.99
951.661	693.24
951.83	560.12
951.998	-2565.08
952.166	-707.57
952.334	-1838.05
952.502	2673.62
952.67	926.71
952.838	590.84
953.006	2540.51
953.174	-23.55
953.342	250.88
953.51	-357.37
953.678	-621.56
953.846	-2735.06
954.014	-183.29
954.181	2092
954.349	-1375.21
954.517	-2003.94
954.685	-1786.85
954.853	-1133.55
955.02	-1684.45
955.188	-2339.8
955.356	-1371.12
955.524	1102.83
955.691	-488.44
955.859	-1684.45
956.027	-594.93
956.194	2665.43
956.362	-1088.5
956.529	539.64
956.697	-1205.23
956.865	353.27
957.032	1401.83
957.2	-2376.67
957.367	-2202.59
957.535	314.36
957.702	822.26
957.87	-2186.21
958.037	103.42
958.204	-1207.28
958.372	977.91
958.539	201.72
958.706	-433.15
958.874	2937.81
959.041	375.8
959.208	-2030.56
959.376	-1403.88
959.543	820.21
959.71	-203.77
959.877	1119.21
960.044	-310.27
960.212	2452.44
960.379	2851.8
960.546	232.44
960.713	-2552.79
960.88	-529.4
961.047	-72.7
961.214	24140.43
961.381	2153.44
961.548	-766.96
961.715	-275.45
961.882	-2208.73
962.049	-855.03
962.216	-973.81
962.383	-1336.3
962.55	-930.8
962.717	1559.53
962.883	601.08
963.05	2399.2
963.217	506.87
963.384	-1358.83
963.551	-175.1
963.717	-1319.92
963.884	-187.39
964.051	367.61
964.218	1305.58
964.384	5567.4
964.551	-1926.11
964.717	-2579.42
964.884	-623.61
965.051	-1391.59
965.217	-2130.91
965.384	-2630.62
965.55	1063.92
965.717	846.84
965.883	-54.27
966.05	-1438.7
966.216	2081.76
966.383	992.24
966.549	-91.13
966.716	-846.84
966.882	-1790.95
967.048	-1248.24
967.215	-2315.23
967.381	-1301.48
967.547	1872.87
967.713	2153.44
967.88	625.65
968.046	-2421.72
968.212	-889.84
968.378	1123.31
968.545	-2362.33
968.711	986.1
968.877	-660.47
969.043	-74.75
969.209	-1983.46
969.375	977.91
969.541	1907.68
969.707	2554.84
969.873	895.99
970.039	-637.94
970.205	1514.47
970.371	4688.82
970.537	1522.66
970.703	318.46
970.869	-859.12
971.035	1682.41
971.201	113.66
971.367	-1643.49
971.532	-517.11
971.698	-470.01
971.864	1250.28
972.03	-2085.86
972.195	-1307.63
972.361	1846.24
972.527	-1240.05
972.693	2980.82
972.858	1563.62
973.024	-1762.28
973.19	-596.98
973.355	175.1
973.521	625.65
973.686	1352.68
973.852	-2472.92
974.017	4131.78
974.183	-2270.17
974.348	617.46
974.514	-2311.13
974.679	-295.93
974.845	-1395.69
975.01	-418.81
975.175	-2966.48
975.341	16988.92
975.506	-132.09
975.672	377.85
975.837	3713.99
976.002	-173.05
976.167	-904.18
976.333	4750.26
976.498	-910.32
976.663	-1833.96
976.828	766.96
976.993	-1039.34
977.159	142.33
977.324	603.13
977.489	2878.42
977.654	164.86
977.819	-1170.41
977.984	-490.49
978.149	2630.62
978.314	1063.92
978.479	-1203.18
978.644	-1956.83
978.809	-721.91
978.974	-1651.69
979.139	1883.11
979.304	-39.94
979.469	-852.98
979.633	-785.4
979.798	-543.74
979.963	-1653.73
980.128	2608.09
980.293	-1922.02
980.457	-1590.25
980.622	-2135.01
980.787	-1735.65
980.951	-199.68
981.116	-424.95
981.281	-1797.09
981.445	-267.26
981.61	789.49
981.775	-1733.61
981.939	-2708.44
982.104	1887.2
982.268	1100.78
982.433	1227.76
982.597	-1588.2
982.762	2530.27
982.926	736.24
983.091	-639.99
983.255	-2614.23
983.419	-1700.84
983.584	1532.9
983.748	-7.17
983.912	-128
984.077	1885.16
984.241	1895.4
984.405	-1887.2
984.57	1836
984.734	-521.21
984.898	-283.64
985.062	-1145.84
985.226	-1342.44
985.39	2606.04
985.555	-101.37
985.719	1815.52
985.883	130.05
986.047	-1407.98
986.211	629.75
986.375	-35.84
986.539	-1299.44
986.703	-1412.07
986.867	-103.42
987.031	656.37
987.195	-1168.37
987.359	-1772.52
987.523	349.18
987.686	-2063.33
987.85	-1762.28
988.014	488.44
988.178	-1096.69
988.342	756.72
988.506	472.06
988.669	-453.63
988.833	265.21
988.997	562.17
989.16	-453.63
989.324	-97.28
989.488	2726.87
989.651	160.77
989.815	3062.74
989.979	-1068.02
990.142	232.44
990.306	-746.48
990.469	1606.63
990.633	961.52
990.796	2255.84
990.96	-691.19
991.123	254.97
991.286	1780.71
991.45	863.22
991.613	-1571.82
991.777	-2278.37
991.94	-1993.7
992.103	502.78
992.267	2675.67
992.43	-963.57
992.593	496.63
992.756	775.16
992.92	406.52
993.083	441.34
993.246	-310.27
993.409	-3079.12
993.572	-1938.4
993.735	-556.02
993.899	191.49
994.062	-375.8
994.225	-977.91
994.388	136.19
994.551	2477.02
994.714	-424.95
994.877	-478.2
995.04	-1577.96
995.203	-1301.48
995.366	994.29
995.528	-1258.48
995.691	971.76
995.854	-1426.41
996.017	-826.36
996.18	-2601.94
996.343	-578.55
996.505	1653.73
996.668	642.04
996.831	-676.85
996.994	-461.82
997.156	-373.75
997.319	-1393.64
997.482	1274.86
997.644	-1504.23
997.807	1199.09
997.97	-1936.35
998.132	-1414.12
998.295	1084.4
998.457	277.5
998.62	-1027.06
998.782	-1623.02
998.945	95.23
999.107	-44.03
999.27	5.12
999.432	-779.25
999.594	603.13
999.757	1924.07
999.919	234.49
1000.081	-2108.38
1000.244	-220.16
1000.406	11.26
1000.568	-187.39
1000.731	1618.92
1000.893	1496.04
1001.055	1471.47
1001.217	-662.52
1001.379	-2212.83
1001.542	-1332.2
1001.704	2962.39
1001.866	-771.06
1002.028	908.27
1002.19	293.88
1002.352	-1037.3
1002.514	-1426.41
1002.676	5149.62
1002.838	1747.94
1003	-609.27
1003.162	-1149.93
1003.324	2128.86
1003.486	961.52
1003.648	-1203.18
1003.809	-531.45
1003.971	1035.25
1004.133	-177.15
1004.295	-351.23
1004.457	-308.22
1004.618	639.99
1004.78	166.91
1004.942	3740.61
1005.104	7.17
1005.265	-1422.31
1005.427	824.31
1005.589	-762.87
1005.75	220.16
1005.912	1741.8
1006.073	2005.99
1006.235	162.81
1006.396	-214.01
1006.558	-238.59
1006.72	-164.86
1006.881	486.39
1007.042	-1238
1007.204	-1883.11
1007.365	-1283.05
1007.527	936.95
1007.688	2968.53
1007.849	-125.95
1008.011	-115.71
1008.172	371.71
1008.333	726
1008.495	-304.12
1008.656	-2053.09
1008.817	867.31
1008.978	2524.12
1009.139	-584.7
1009.301	467.96
1009.462	-2790.36
1009.623	850.93
1009.784	-1326.06
1009.945	154.62
1010.106	822.26
1010.267	269.31
1010.428	-1256.43
1010.589	-2128.86
1010.75	113.66
1010.911	-1151.98
1011.072	-2434.01
1011.233	709.62
1011.394	-543.74
1011.555	105.47
1011.716	633.85
1011.877	-1352.68
1012.037	279.55
1012.198	-1209.33
1012.359	367.61
1012.52	-1414.12
1012.68	-302.08
1012.841	3.07
1013.002	105.47
1013.163	-750.58
1013.323	293.88
1013.484	-1831.91
1013.644	-1340.4
1013.805	662.52
1013.966	-717.81
1014.126	2583.51
1014.287	-879.6
1014.447	-322.56
1014.608	1293.29
1014.768	-1260.52
1014.929	592.89
1015.089	-1266.67
1015.249	195.58
1015.41	13.31
1015.57	787.44
1015.731	-2143.2
1015.891	-582.65
1016.051	590.84
1016.211	-607.22
1016.372	1524.71
1016.532	-703.48
1016.692	-455.67
1016.852	508.92
1017.013	-609.27
1017.173	-320.51
1017.333	-988.14
1017.493	-832.5
1017.653	-1330.16
1017.813	-2001.89
1017.973	-269.31
1018.133	-1594.34
1018.293	-1809.38
1018.453	-304.12
1018.613	-2053.09
1018.773	2079.71
1018.933	-214.01
1019.093	814.07
1019.253	37.89
1019.413	1063.92
1019.573	-2163.68
1019.733	-414.71
1019.892	1967.07
1020.052	-547.83
1020.212	531.45
1020.372	66.56
1020.531	1524.71
1020.691	-402.43
1020.851	414.71
1021.01	238.59
1021.17	277.5
1021.33	-394.23
1021.489	-1672.17
1021.649	-109.57
1021.808	-54.27
1021.968	289.79
1022.127	-2855.89
1022.287	1876.96
1022.446	-523.26
1022.606	496.63
1022.765	-1432.55
1022.925	2409.44
1023.084	961.52
1023.244	1694.69
1023.403	-670.71
1023.562	-992.24
1023.722	-424.95
1023.881	-576.5
1024.04	-332.79
1024.199	605.17
1024.359	-44.03
1024.518	-2116.58
1024.677	-928.75
1024.836	-928.75
1024.995	861.17
1025.154	-1065.97
1025.313	-171.01
1025.473	-1317.87
1025.632	-1194.99
1025.791	764.92
1025.95	-1442.79
1026.109	-859.12
1026.268	293.88
1026.427	1194.99
1026.586	1577.96
1026.744	19.46
1026.903	6046.63
1027.062	-222.2
1027.221	1002.48
1027.38	439.29
1027.539	1002.48
1027.698	4621.24
1027.856	-1436.65
1028.015	547.83
1028.174	515.06
1028.333	285.69
1028.491	3896.26
1028.65	1612.78
1028.808	3800.01
1028.967	760.82
1029.126	670.71
1029.284	-1790.95
1029.443	404.47
1029.601	-820.21
1029.76	-1575.91
1029.918	-1219.57
1030.077	556.02
1030.235	2227.17
1030.394	-807.92
1030.552	1135.6
1030.711	2542.55
1030.869	-599.03
1031.027	-734.2
1031.186	-2491.35
1031.344	-1299.44
1031.502	-347.13
1031.661	1108.98
1031.819	1850.34
1031.977	1055.73
1032.135	-1770.47
1032.293	-979.95
1032.452	-1465.32
1032.61	3587.02
1032.768	-1821.67
1032.926	33.79
1033.084	3120.08
1033.242	-713.72
1033.4	-1561.58
1033.558	711.67
1033.716	-148.48
1033.874	-930.8
1034.032	-293.88
1034.19	-408.57
1034.348	2261.98
1034.506	-1838.05
1034.664	486.39
1034.822	-1676.26
1034.979	2350.04
1035.137	748.53
1035.295	-422.91
