Data from TmLN Sample 1_USBC44471_15-04-04-493.txt Node
Date: Wed Jul 29 15:04:04 MDT 2020
User: Montana Instruments
Spectrometer: USBC4447
Scans to average: 1
Trigger mode: 4
Integration Time (sec): 1.000000E1
Electric dark correction enabled: true
Boxcar width: 0
XAxis mode: Wavelengths
Number of Pixels in Spectrum: 3648
>>>>>Begin Spectral Data<<<<<
344.991	-5199.79
345.205	-5199.79
345.419	-5199.79
345.633	-5152.69
345.847	-5187.5
346.061	-428.03
346.275	1046.51
346.489	-1314.8
346.703	-135.17
346.917	-1581.03
347.131	1034.22
347.345	-854
347.559	-780.28
347.773	1429.48
347.986	-118.78
348.2	2840.53
348.414	-1138.67
348.628	-716.79
348.842	-997.36
349.056	-1157.1
349.269	425.98
349.483	1103.86
349.697	1435.63
349.911	1251.31
350.125	-1222.64
350.338	401.4
350.552	651.25
350.766	-602.1
350.979	-1593.32
351.193	-458.74
351.407	5058.48
351.621	-8.19
351.834	-1376.24
352.048	2416.6
352.262	-544.76
352.475	3131.34
352.689	1046.51
352.902	1409
353.116	94.21
353.33	-1458.15
353.543	-1093.62
353.757	468.98
353.971	145.41
354.184	75.77
354.398	-511.99
354.611	753.65
354.825	2568.15
355.038	888.82
355.252	-204.8
355.465	-405.5
355.679	-1732.58
355.892	581.62
356.106	1087.47
356.319	7133.08
356.533	-528.38
356.746	-215.04
356.96	-761.84
357.173	-1515.5
357.386	1220.59
357.6	-915.44
357.813	-819.19
358.027	-1929.19
358.24	-729.08
358.453	2412.51
358.667	-1421.29
358.88	917.49
359.094	-944.11
359.307	288.76
359.52	-540.66
359.733	1910.75
359.947	-2267.1
360.16	1134.57
360.373	1361.9
360.587	-1220.59
360.8	-643.06
361.013	-253.95
361.226	-905.2
361.44	1937.38
361.653	1402.86
361.866	-806.9
362.079	-2133.98
362.292	225.28
362.506	3086.29
362.719	505.85
362.932	2760.66
363.145	176.13
363.358	-925.68
363.571	-1236.97
363.785	-350.2
363.998	1118.19
364.211	1761.25
364.424	-1273.84
364.637	1017.84
364.85	-714.74
365.063	1877.99
365.276	100.35
365.489	-1486.83
365.702	-503.8
365.915	370.68
366.128	-401.4
366.341	1658.85
366.554	3190.74
366.767	-835.57
366.98	-100.35
367.193	722.93
367.406	-1286.12
367.619	3354.57
367.832	1808.36
368.045	106.49
368.258	385.02
368.471	948.21
368.684	-2011.11
368.896	-1736.68
369.109	-57.34
369.322	-1185.77
369.535	-180.22
369.748	-1544.17
369.961	-677.88
370.173	-2686.93
370.386	-2430.94
370.599	2406.36
370.812	-587.77
371.025	-700.41
371.237	118.78
371.45	100.35
371.663	565.24
371.876	-788.47
372.088	4546.49
372.301	-882.67
372.514	-1511.4
372.726	391.16
372.939	-499.7
373.152	-397.31
373.364	659.45
373.577	3164.11
373.79	-567.29
374.002	-1069.04
374.215	-2656.22
374.428	-1765.35
374.64	1298.41
374.853	-1085.42
375.065	-569.34
375.278	3487.69
375.491	-210.94
375.703	1267.69
375.916	-2119.65
376.128	-665.59
376.341	-1478.63
376.553	776.18
376.766	-1497.07
376.978	-1679.33
377.191	741.36
377.403	-1556.46
377.616	2867.16
377.828	3647.43
378.04	-1316.84
378.253	-686.07
378.465	382.97
378.678	923.63
378.89	-1335.28
379.103	-788.47
379.315	159.74
379.527	-1665
379.74	-710.65
379.952	-309.24
380.164	-1550.31
380.377	1884.13
380.589	-71.68
380.801	-63.49
381.014	1499.11
381.226	731.12
381.438	-270.33
381.65	-1435.63
381.863	-4.1
382.075	-999.41
382.287	-2209.76
382.499	-1009.65
382.712	-309.24
382.924	-22.53
383.136	-901.11
383.348	-2727.89
383.56	-278.52
383.772	-1144.81
383.985	202.75
384.197	1105.9
384.409	-526.33
384.621	288.76
384.833	-38.91
385.045	-124.93
385.257	-1277.93
385.469	-559.1
385.681	6.14
385.893	-112.64
386.105	-1083.38
386.318	-2408.41
386.53	-456.7
386.742	-2891.73
386.954	-2217.95
387.166	2588.63
387.378	-198.65
387.589	-30.72
387.801	-2861.01
388.013	-1400.81
388.225	-1234.93
388.437	-2086.88
388.649	-1695.72
388.861	2531.29
389.073	886.77
389.285	-626.68
389.497	509.94
389.709	1220.59
389.92	-1318.89
390.132	-1001.46
390.344	-679.93
390.556	-665.59
390.768	212.99
390.98	-1005.55
391.191	1544.17
391.403	524.28
391.615	149.5
391.827	-1239.02
392.038	-851.95
392.25	-380.92
392.462	-2181.09
392.674	-1888.23
392.885	-1517.54
393.097	-2324.44
393.309	-794.61
393.52	944.11
393.732	-1630.18
393.944	544.76
394.155	202.75
394.367	-1370.09
394.579	444.41
394.79	-1189.87
395.002	45.06
395.213	-2506.71
395.425	-477.18
395.637	-1232.88
395.848	-2140.13
396.06	288.76
396.271	133.12
396.483	-1155.05
396.694	-348.15
396.906	-438.27
397.117	1210.35
397.329	1202.16
397.54	-886.77
397.752	-1832.93
397.963	-1198.06
398.175	77.82
398.386	980.98
398.598	-862.19
398.809	-2119.65
399.02	651.25
399.232	581.62
399.443	-65.53
399.655	-913.39
399.866	-1173.49
400.077	-657.4
400.289	1230.83
400.5	-159.74
400.711	649.21
400.923	-1585.13
401.134	-1097.71
401.345	-1902.56
401.556	3301.33
401.768	-1120.24
401.979	-452.6
402.19	794.61
402.401	-430.07
402.613	106.49
402.824	-827.38
403.035	-2369.5
403.246	-1757.16
403.457	303.1
403.669	-30.72
403.88	-1486.83
404.091	-2129.89
404.302	-1339.37
404.513	-634.87
404.724	-921.59
404.935	-772.08
405.146	522.23
405.358	-1781.73
405.569	-1628.14
405.78	-1996.77
405.991	-940.02
406.202	-135.17
406.413	-401.4
406.624	-1521.64
406.835	-221.18
407.046	2645.98
407.257	-196.61
407.468	1064.94
407.679	-511.99
407.89	1644.52
408.101	1812.45
408.312	-616.44
408.522	-1927.14
408.733	155.65
408.944	83.97
409.155	-616.44
409.366	796.66
409.577	-1904.61
409.788	-542.71
409.999	67.58
410.209	-745.46
410.42	-55.3
410.631	-1830.88
410.842	-258.04
411.053	4624.31
411.264	987.12
411.474	-1234.93
411.685	-98.3
411.896	-1413.1
412.107	-2150.37
412.317	-1120.24
412.528	1761.25
412.739	-2146.27
412.949	-1470.44
413.16	4.1
413.371	1812.45
413.581	745.46
413.792	-577.53
414.003	3289.04
414.213	1540.07
414.424	-2109.41
414.635	-651.25
414.845	-1269.74
415.056	729.08
415.266	-1740.77
415.477	-2465.75
415.687	606.2
415.898	778.23
416.109	-1789.92
416.319	292.86
416.53	-2541.53
416.74	100.35
416.951	-1396.71
417.161	-190.46
417.372	-36.86
417.582	282.62
417.792	1394.67
418.003	2064.35
418.213	-737.27
418.424	468.98
418.634	-1665
418.844	1003.5
419.055	1642.47
419.265	-1216.49
419.476	264.19
419.686	-1017.84
419.896	-192.51
420.107	-1171.44
420.317	-808.95
420.527	16.38
420.738	-344.06
420.948	864.24
421.158	1341.42
421.368	-792.56
421.579	-348.15
421.789	-1198.06
421.999	-3246.03
422.209	-567.29
422.419	-569.34
422.63	-317.44
422.84	-602.1
423.05	-1196.01
423.26	-1247.21
423.47	-323.58
423.681	-2058.21
423.891	630.77
424.101	1390.57
424.311	-929.78
424.521	-350.2
424.731	-851.95
424.941	-636.92
425.151	266.24
425.361	-1695.72
425.571	-2465.75
425.781	3653.58
425.991	806.9
426.201	1247.21
426.411	196.6
426.621	-1259.5
426.831	-1974.24
427.041	-12.29
427.251	-487.42
427.461	1171.44
427.671	1175.53
427.881	-958.45
428.091	-94.21
428.301	2093.02
428.511	-118.78
428.721	-3065.81
428.93	-677.88
429.14	-1236.97
429.35	92.16
429.56	-1144.81
429.77	-540.66
429.98	-1243.12
430.189	-1107.95
430.399	2293.72
430.609	1271.79
430.819	182.27
431.029	-1499.11
431.238	-987.12
431.448	-919.54
431.658	-2443.23
431.867	-864.24
432.077	163.84
432.287	-1095.66
432.497	-917.49
432.706	-86.01
432.916	-468.98
433.125	-2875.35
433.335	-1236.97
433.545	1279.98
433.754	3663.82
433.964	-1355.76
434.174	-823.28
434.383	2015.2
434.593	-1114.1
434.802	767.99
435.012	-1339.37
435.221	237.56
435.431	-450.55
435.64	-1060.85
435.85	-1212.4
436.059	167.93
436.269	745.46
436.478	-1138.67
436.688	-2269.15
436.897	-907.25
437.107	-2250.72
437.316	25747.06
437.525	-2.05
437.735	-12.29
437.944	65.53
438.154	2232.29
438.363	2.05
438.572	2387.93
438.782	215.04
438.991	-909.3
439.2	-385.02
439.41	-1019.89
439.619	-1140.72
439.828	192.51
440.038	-26.62
440.247	1867.75
440.456	-1603.56
440.665	464.89
440.875	864.24
441.084	256
441.293	-1732.58
441.502	-1222.64
441.711	-1134.57
441.92	380.92
442.13	-471.03
442.339	-1251.31
442.548	-641.01
442.757	1730.53
442.966	-2867.16
443.175	-1060.85
443.384	1310.7
443.593	1495.02
443.803	-2033.63
444.012	-391.16
444.221	-571.38
444.43	4341.69
444.639	294.91
444.848	1841.12
445.057	-1251.31
445.266	-1429.48
445.475	-2260.96
445.684	-1318.89
445.893	2105.31
446.102	276.48
446.311	-2990.03
446.52	12.29
446.728	2596.82
446.937	-2582.49
447.146	-3420.11
447.355	313.34
447.564	-346.11
447.773	1347.56
447.982	1198.06
448.191	569.34
448.399	-1327.08
448.608	-966.64
448.817	-673.78
449.026	749.56
449.235	-1621.99
449.443	989.17
449.652	-665.59
449.861	-976.88
450.07	284.67
450.278	1548.26
450.487	-3051.47
450.696	-92.16
450.904	-1292.27
451.113	-968.69
451.322	557.05
451.53	-700.41
451.739	2711.51
451.948	-1060.85
452.156	16.38
452.365	3995.59
452.574	806.9
452.782	59.39
452.991	-606.2
453.199	583.67
453.408	241.66
453.616	-1347.56
453.825	1163.25
454.033	1198.06
454.242	3096.53
454.45	3280.85
454.659	290.81
454.867	13872.94
455.076	-1122.29
455.284	-911.35
455.493	-1695.72
455.701	-1191.92
455.91	2977.75
456.118	-1050.61
456.326	-2021.35
456.535	2324.44
456.743	1023.98
456.951	-2146.27
457.16	991.22
457.368	524.28
457.576	-1603.56
457.785	2267.1
457.993	-272.38
458.201	-1300.46
458.41	696.31
458.618	-1026.03
458.826	-247.8
459.034	-2783.19
459.243	-1476.59
459.451	-26.62
459.659	-88.06
459.867	-636.92
460.075	-767.99
460.284	-163.84
460.492	-2197.47
460.7	-483.32
460.908	-663.54
461.116	-2521.05
461.324	-1259.5
461.532	-2361.31
461.741	-1904.61
461.949	-868.34
462.157	1890.28
462.365	-167.93
462.573	-63.49
462.781	473.08
462.989	-1001.46
463.197	-1542.12
463.405	-2127.84
463.613	-141.31
463.821	-2406.36
464.029	-81.92
464.237	-1175.53
464.445	-794.61
464.653	606.2
464.861	-395.26
465.069	1202.16
465.276	4300.73
465.484	-827.38
465.692	-671.73
465.9	-917.49
466.108	-706.55
466.316	706.55
466.524	-847.86
466.731	-593.91
466.939	1748.97
467.147	-196.61
467.355	-174.08
467.563	1538.02
467.77	749.56
467.978	-2533.34
468.186	204.8
468.393	1964
468.601	-317.44
468.809	-1826.79
469.017	-956.4
469.224	-1781.73
469.432	1017.84
469.64	-1269.74
469.847	-2097.12
470.055	491.51
470.263	-1261.55
470.47	-1185.77
470.678	1191.92
470.885	-198.65
471.093	2412.51
471.3	630.77
471.508	-1525.74
471.716	-561.14
471.923	235.52
472.131	114.69
472.338	-1417.19
472.546	-835.57
472.753	2627.54
472.961	-1398.76
473.168	-268.28
473.375	-462.84
473.583	937.97
473.79	-307.2
473.998	309.24
474.205	358.39
474.412	1740.77
474.62	-819.19
474.827	-1333.23
475.035	1300.46
475.242	-866.29
475.449	-1503.21
475.657	3762.12
475.864	3080.14
476.071	-114.69
476.278	-1044.46
476.486	-708.6
476.693	110.59
476.9	237.56
477.107	309.24
477.315	-1052.66
477.522	45.06
477.729	1445.87
477.936	-724.98
478.143	-1544.17
478.351	1200.11
478.558	-1327.08
478.765	-749.56
478.972	-393.21
479.179	466.94
479.386	677.88
479.593	829.43
479.8	649.21
480.007	-1671.14
480.215	-401.4
480.422	884.72
480.629	-2289.63
480.836	954.35
481.043	2838.48
481.25	-698.36
481.457	-1492.97
481.664	-706.55
481.871	507.9
482.078	-1423.34
482.284	-1419.24
482.491	1738.73
482.698	1720.29
482.905	-1103.86
483.112	-2101.22
483.319	184.32
483.526	79.87
483.733	1953.76
483.94	-2598.87
484.146	-1632.23
484.353	-10.24
484.56	-700.41
484.767	-2977.75
484.974	2013.15
485.18	1409
485.387	-526.33
485.594	-1263.6
485.801	1648.61
486.007	116.73
486.214	-1040.37
486.421	-1890.28
486.627	-460.79
486.834	722.93
487.041	507.9
487.247	-1320.94
487.454	-1402.86
487.661	350.2
487.867	368.63
488.074	-1851.36
488.281	1087.47
488.487	-321.53
488.694	-626.68
488.9	-548.86
489.107	-999.41
489.313	-784.37
489.52	-815.09
489.726	-1822.69
489.933	2750.42
490.139	2670.55
490.346	-479.22
490.552	251.9
490.759	-190.46
490.965	73.73
491.172	2772.95
491.378	-487.42
491.584	88.06
491.791	1429.48
491.997	-260.09
492.204	-567.29
492.41	3004.37
492.616	-1699.81
492.823	-1484.78
493.029	-1177.58
493.235	2222.05
493.442	-296.96
493.648	-837.62
493.854	-741.36
494.06	4497.34
494.267	557.05
494.473	-788.47
494.679	-1361.9
494.885	493.56
495.091	3041.23
495.298	657.4
495.504	-2418.65
495.71	-315.39
495.916	-1730.53
496.122	2547.67
496.328	505.85
496.535	573.43
496.741	-331.77
496.947	786.42
497.153	-290.81
497.359	518.14
497.565	481.27
497.771	1601.51
497.977	-309.24
498.183	-698.36
498.389	755.7
498.595	-1605.61
498.801	409.59
499.007	733.17
499.213	-499.7
499.419	-780.28
499.625	-4.1
499.831	3065.81
500.037	-636.92
500.243	-1443.82
500.448	-696.31
500.654	890.87
500.86	1779.68
501.066	-540.66
501.272	2191.33
501.478	-1857.51
501.684	-595.96
501.889	-1736.68
502.095	-1509.35
502.301	-376.83
502.507	561.14
502.712	-610.29
502.918	-1347.56
503.124	-1107.95
503.33	903.15
503.535	-749.56
503.741	4.1
503.947	-245.76
504.152	-278.52
504.358	-2164.7
504.564	-555
504.769	481.27
504.975	3993.54
505.181	-8.19
505.386	-1779.68
505.592	-778.23
505.797	743.41
506.003	-2557.91
506.208	1839.08
506.414	-411.64
506.619	210.94
506.825	497.66
507.03	-1933.28
507.236	-958.45
507.441	30.72
507.647	-866.29
507.852	36.86
508.058	1087.47
508.263	899.06
508.469	-489.46
508.674	-2152.42
508.879	-573.43
509.085	-192.51
509.29	-1578.98
509.495	-1089.52
509.701	-823.28
509.906	960.5
510.111	-495.61
510.317	927.73
510.522	335.87
510.727	1986.53
510.933	-663.54
511.138	227.32
511.343	-765.94
511.548	573.43
511.754	-1611.75
511.959	2133.98
512.164	-94.21
512.369	3346.38
512.574	3174.35
512.779	-1490.92
512.985	-514.04
513.19	767.99
513.395	26.62
513.6	-948.21
513.805	-241.66
514.01	1929.19
514.215	-305.15
514.42	2738.13
514.625	-399.35
514.83	2400.22
515.035	-94.21
515.24	2.05
515.445	2916.31
515.65	1839.08
515.855	190.46
516.06	-419.83
516.265	573.43
516.47	1384.43
516.675	249.85
516.88	-2209.76
517.085	165.89
517.29	-479.22
517.495	1339.37
517.7	1568.74
517.904	-165.89
518.109	671.73
518.314	-458.74
518.519	454.65
518.724	638.97
518.928	641.01
519.133	-339.96
519.338	61.44
519.543	483.32
519.747	864.24
519.952	2867.16
520.157	5775.27
520.362	966.64
520.566	2752.47
520.771	-1824.74
520.976	1163.25
521.18	3772.36
521.385	-958.45
521.59	-866.29
521.794	481.27
521.999	2062.3
522.203	-929.78
522.408	-350.2
522.612	-944.11
522.817	727.03
523.022	2230.24
523.226	-270.33
523.431	-907.25
523.635	129.02
523.84	2082.78
524.044	-761.84
524.249	1640.42
524.453	2744.28
524.657	258.04
524.862	5662.63
525.066	-929.78
525.271	38.91
525.475	1290.22
525.679	40.96
525.884	-1734.63
526.088	1331.18
526.292	2650.07
526.497	116.73
526.701	-708.6
526.905	-241.66
527.11	280.57
527.314	-198.65
527.518	3207.12
527.722	-677.88
527.927	1435.63
528.131	-1773.54
528.335	5238.7
528.539	1830.88
528.744	2670.55
528.948	-1529.83
529.152	-1153.01
529.356	2400.22
529.56	708.6
529.764	157.69
529.968	40.96
530.173	7751.56
530.377	6004.64
530.581	-1488.87
530.785	1710.05
530.989	-253.95
531.193	532.47
531.397	-1130.48
531.601	147.45
531.805	1777.64
532.009	1617.9
532.213	71.68
532.417	759.8
532.621	2099.17
532.825	3221.45
533.029	18.43
533.233	714.74
533.436	722.93
533.64	253.95
533.844	1769.44
534.048	-534.52
534.252	1472.49
534.456	3512.27
534.66	2297.82
534.863	274.43
535.067	382.97
535.271	2510.81
535.475	-331.77
535.679	1300.46
535.882	3092.43
536.086	2107.36
536.29	2318.3
536.493	706.55
536.697	1562.6
536.901	1187.82
537.104	2217.95
537.308	1122.29
537.512	1443.82
537.715	3663.82
537.919	2086.88
538.123	1894.37
538.326	1689.57
538.53	3024.85
538.733	3418.06
538.937	2482.14
539.141	2205.66
539.344	3200.98
539.548	2363.36
539.751	4982.71
539.955	5834.66
540.158	7425.93
540.362	5146.55
540.565	3215.31
540.768	4704.18
540.972	10954.58
541.175	9084.79
541.379	6612.89
541.582	6586.27
541.785	8163.2
541.989	9600.88
542.192	5517.23
542.396	6664.09
542.599	8607.61
542.802	8843.13
543.005	7579.53
543.209	6756.25
543.412	8040.33
543.615	8054.66
543.819	8089.48
544.022	6877.08
544.225	7944.07
544.428	7815.05
544.631	10125.16
544.835	7389.07
545.038	6320.03
545.241	6762.39
545.444	9572.21
545.647	8253.31
545.85	6692.76
546.054	5451.69
546.257	4300.73
546.46	6754.2
546.663	6322.08
546.866	6727.58
547.069	6696.86
547.272	5455.79
547.475	6021.03
547.678	5050.29
547.881	4159.42
548.084	4622.27
548.287	4935.6
548.49	2818.01
548.693	4173.76
548.896	2070.5
549.099	4509.63
549.302	2668.5
549.505	2058.21
549.707	1695.72
549.91	4208.58
550.113	2066.4
550.316	1601.51
550.519	4255.68
550.722	4157.38
550.924	1794.02
551.127	3039.19
551.33	2310.11
551.533	1767.4
551.736	1316.84
551.938	1093.62
552.141	2799.57
552.344	1075.18
552.546	3055.57
552.749	1705.96
552.952	1892.32
553.154	1763.3
553.357	1920.99
553.56	1634.28
553.762	6897.56
553.965	5777.32
554.168	2033.63
554.37	3874.76
554.573	2762.71
554.775	4140.99
554.978	3311.57
555.18	638.97
555.383	1374.19
555.585	5085.11
555.788	2746.33
555.99	1363.95
556.193	2076.64
556.395	3299.28
556.598	1191.92
556.8	1613.8
557.003	2144.22
557.205	5590.95
557.407	1503.21
557.61	2136.03
557.812	2455.51
558.015	4227.01
558.217	1140.72
558.419	2287.58
558.622	3731.4
558.824	2609.11
559.026	1130.48
559.228	1900.52
559.431	3198.93
559.633	3264.46
559.835	2021.35
560.037	3137.49
560.24	5103.54
560.442	4261.82
560.644	1589.22
560.846	3461.07
561.048	3674.06
561.25	4579.26
561.453	3059.67
561.655	2205.66
561.857	2611.16
562.059	2052.06
562.261	4812.73
562.463	2992.08
562.665	2779.09
562.867	3758.02
563.069	3850.18
563.271	4589.5
563.473	3542.99
563.675	3153.87
563.877	3370.96
564.079	2179.04
564.281	5124.02
564.483	3579.85
564.685	3117.01
564.887	2502.62
565.089	4550.59
565.291	4661.18
565.493	2162.65
565.694	5203.89
565.896	2084.83
566.098	4036.55
566.3	4999.09
566.502	2478.04
566.704	5607.34
566.905	665.59
567.107	1562.6
567.309	1406.95
567.511	4282.3
567.712	1667.05
567.914	2758.61
568.116	761.84
568.317	4802.49
568.519	3299.28
568.721	378.87
568.922	311.29
569.124	2707.41
569.326	5060.53
569.527	2582.49
569.729	2504.67
569.93	6565.79
570.132	2228.19
570.334	4300.73
570.535	811
570.737	1927.14
570.938	6406.05
571.14	2078.69
571.341	3655.62
571.543	7079.83
571.744	2826.2
571.946	4292.54
572.147	1693.67
572.348	5611.43
572.55	4339.65
572.751	4784.05
572.953	2359.26
573.154	4437.95
573.355	6451.1
573.557	8904.57
573.758	3704.78
573.959	3528.65
574.161	5087.15
574.362	5513.13
574.563	7307.15
574.765	5965.73
574.966	6256.54
575.167	2490.33
575.368	5476.27
575.569	3903.43
575.771	5916.58
575.972	2899.92
576.173	4079.55
576.374	5429.17
576.575	4884.41
576.776	1697.77
576.978	2637.78
577.179	3596.23
577.38	4302.78
577.581	2799.57
577.782	3659.72
577.983	5087.15
578.184	5812.14
578.385	3395.53
578.586	4143.04
578.787	2752.47
578.988	3991.49
579.189	1898.47
579.39	2789.33
579.591	3825.61
579.792	2887.64
579.993	4603.83
580.194	4515.77
580.395	5750.7
580.596	3950.53
580.796	5085.11
580.997	2854.87
581.198	3665.86
581.399	5652.39
581.6	6174.63
581.801	2955.22
582.001	6668.19
582.202	2406.36
582.403	1570.79
582.604	7311.25
582.804	3690.44
583.005	4081.6
583.206	954.35
583.407	5310.38
583.607	3184.59
583.808	2910.16
584.009	4745.14
584.209	4501.44
584.41	1814.5
584.61	3354.57
584.811	3262.41
585.012	2369.5
585.212	1931.23
585.413	3405.77
585.613	3035.09
585.814	2111.46
586.014	5324.72
586.215	2545.63
586.415	3067.86
586.616	2088.93
586.816	2691.03
587.017	4599.74
587.217	1769.44
587.418	5945.25
587.618	2703.32
587.819	2549.72
588.019	1204.21
588.219	718.84
588.42	2938.84
588.62	1140.72
588.82	1114.09
589.021	1589.22
589.221	3350.48
589.421	1679.33
589.622	4149.18
589.822	1087.47
590.022	5466.03
590.222	3461.07
590.423	2035.68
590.623	1023.98
590.823	2990.03
591.023	3016.66
591.223	894.96
591.423	5547.95
591.624	2770.9
591.824	2324.44
592.024	1454.06
592.224	2121.7
592.424	5167.03
592.624	2320.35
592.824	2768.85
593.024	1988.58
593.224	4960.18
593.424	4530.11
593.624	2318.3
593.824	2250.72
594.024	2899.92
594.224	1011.7
594.424	2330.59
594.624	589.81
594.824	1751.01
595.024	1306.6
595.224	2346.97
595.424	692.21
595.624	759.8
595.824	976.88
596.023	3770.31
596.223	3700.68
596.423	1503.21
596.623	2674.65
596.823	-243.71
597.023	-669.69
597.222	6199.2
597.422	757.75
597.622	-151.55
597.822	944.11
598.021	2406.36
598.221	933.87
598.421	-440.31
598.62	1468.39
598.82	712.69
599.02	4612.03
599.219	4059.07
599.419	2236.38
599.618	665.59
599.818	2607.06
600.018	-516.09
600.217	862.19
600.417	3848.13
600.616	1370.09
600.816	1748.97
601.015	2052.06
601.215	1038.32
601.414	882.67
601.614	741.36
601.813	-415.74
602.013	2090.98
602.212	1357.8
602.412	241.66
602.611	2619.35
602.81	1966.05
603.01	3059.67
603.209	1357.8
603.408	-1011.7
603.608	2502.62
603.807	1163.25
604.006	5789.61
604.206	141.31
604.405	1335.28
604.604	1837.03
604.803	1425.39
605.003	309.24
605.202	245.76
605.401	786.42
605.6	2224.09
605.8	364.54
605.999	481.27
606.198	1912.8
606.397	2162.65
606.596	778.23
606.795	2672.6
606.994	3430.35
607.193	958.45
607.393	3676.1
607.592	3758.02
607.791	1601.51
607.99	3796.93
608.189	3706.82
608.388	4655.03
608.587	3997.63
608.786	2351.07
608.985	727.03
609.184	2150.37
609.382	3274.7
609.581	2686.94
609.78	4534.2
609.979	4259.77
610.178	2877.4
610.377	2496.47
610.576	686.07
610.775	3162.06
610.973	3332.05
611.172	3901.38
611.371	2813.91
611.57	2242.53
611.769	4816.82
611.967	1521.64
612.166	4677.56
612.365	2686.94
612.564	3129.3
612.762	2590.68
612.961	3135.44
613.16	2019.3
613.358	3018.71
613.557	-86.01
613.756	2908.12
613.954	4184
614.153	1363.95
614.351	1337.32
614.55	602.1
614.749	3637.19
614.947	1824.74
615.146	782.32
615.344	2357.21
615.543	-6.14
615.741	2279.39
615.94	2940.88
616.138	737.27
616.337	2883.54
616.535	1050.61
616.733	-2.05
616.932	1304.56
617.13	3583.95
617.329	4872.12
617.527	-870.39
617.725	-1464.3
617.924	-800.76
618.122	296.96
618.32	-757.75
618.519	-1394.67
618.717	2361.31
618.915	2086.88
619.114	1073.14
619.312	-34.82
619.51	374.78
619.708	2234.33
619.906	-442.36
620.105	-583.67
620.303	-485.37
620.501	3579.85
620.699	-1578.98
620.897	946.16
621.095	1867.75
621.293	-1013.74
621.492	1798.12
621.69	-20.48
621.888	1056.75
622.086	3078.1
622.284	995.31
622.482	319.48
622.68	735.22
622.878	286.72
623.076	8.19
623.274	-24.58
623.472	462.84
623.67	1269.74
623.868	-2256.86
624.065	956.4
624.263	745.46
624.461	952.31
624.659	-626.68
624.857	2850.77
625.055	2412.51
625.253	-421.88
625.45	-126.97
625.648	71.68
625.846	83.97
626.044	329.72
626.242	491.51
626.439	2060.26
626.637	729.08
626.835	-135.17
627.032	1837.03
627.23	-1333.23
627.428	3321.81
627.626	1284.08
627.823	346.11
628.021	2494.43
628.218	2068.45
628.416	1392.62
628.614	-1413.1
628.811	-1501.16
629.009	-544.76
629.206	-274.43
629.404	-913.39
629.601	182.27
629.799	-1671.14
629.996	3182.54
630.194	1101.81
630.391	880.63
630.589	-548.86
630.786	1828.84
630.984	239.61
631.181	-1990.63
631.378	-661.49
631.576	1861.6
631.773	-2031.59
631.97	-1390.57
632.168	-1503.21
632.365	229.37
632.562	354.3
632.76	-1021.94
632.957	419.83
633.154	120.83
633.352	503.8
633.549	-585.72
633.746	2072.54
633.943	860.15
634.14	-626.68
634.338	2322.4
634.535	-362.49
634.732	-221.18
634.929	2473.95
635.126	696.31
635.323	-6.14
635.52	2052.06
635.717	335.87
635.915	-221.18
636.112	104.45
636.309	-1699.81
636.506	-458.74
636.703	-2217.95
636.9	-346.11
637.097	4978.61
637.294	133.12
637.491	-1138.67
637.688	2328.54
637.884	-1007.6
638.081	-641.01
638.278	-149.5
638.475	-270.33
638.672	-595.96
638.869	-634.87
639.066	5443.5
639.263	700.41
639.459	770.04
639.656	-2234.33
639.853	-1699.81
640.05	14147.37
640.246	1898.47
640.443	-284.67
640.64	-2811.86
640.837	382.97
641.033	-1662.95
641.23	-141.31
641.427	-133.12
641.623	688.12
641.82	-620.53
642.017	-1249.26
642.213	-489.46
642.41	-559.1
642.606	1091.57
642.803	1144.81
643	139.26
643.196	-1144.81
643.393	2281.44
643.589	79.87
643.786	-1232.88
643.982	4087.75
644.179	1413.1
644.375	-958.45
644.571	-497.66
644.768	-1325.04
644.964	-335.87
645.161	-348.15
645.357	2312.16
645.553	251.9
645.75	1974.24
645.946	10.24
646.143	-122.88
646.339	397.31
646.535	247.8
646.731	1200.11
646.928	-59.39
647.124	-1626.09
647.32	2021.35
647.516	1810.4
647.713	-1363.95
647.909	-204.8
648.105	-649.21
648.301	-2658.26
648.497	278.52
648.693	-591.86
648.89	-464.89
649.086	-266.24
649.282	-1134.57
649.478	-491.51
649.674	135.17
649.87	1794.02
650.066	1112.05
650.262	-1146.86
650.458	1675.24
650.654	-1380.33
650.85	208.89
651.046	-446.46
651.242	-206.84
651.438	108.54
651.634	-1634.28
651.83	-835.57
652.026	395.26
652.222	-378.87
652.417	-350.2
652.613	1101.81
652.809	-1497.07
653.005	-1017.84
653.201	2244.57
653.397	-1110
653.592	-190.46
653.788	-1206.25
653.984	1335.28
654.18	4394.94
654.375	-759.8
654.571	-243.71
654.767	-264.19
654.962	-917.49
655.158	-2349.02
655.354	-749.56
655.549	823.28
655.745	1050.61
655.941	3567.56
656.136	-843.76
656.332	-1464.3
656.527	-73.73
656.723	1314.8
656.918	-1982.43
657.114	-731.12
657.309	-247.8
657.505	845.81
657.7	1261.55
657.896	-1216.49
658.091	-1138.67
658.287	-714.74
658.482	-2195.42
658.678	-1042.42
658.873	256
659.068	3180.5
659.264	-616.44
659.459	28755.53
659.654	446.46
659.85	2133.98
660.045	-1597.42
660.24	1607.66
660.436	5083.06
660.631	-329.72
660.826	1843.17
661.021	24.58
661.217	2076.64
661.412	-880.63
661.607	-2144.22
661.802	-651.25
661.997	-401.4
662.192	542.71
662.388	-2504.67
662.583	-731.12
662.778	219.13
662.973	-1945.57
663.168	-2580.44
663.363	-1048.56
663.558	3680.2
663.753	1206.25
663.948	-2017.25
664.143	-1775.59
664.338	161.79
664.533	890.87
664.728	-677.88
664.923	-1079.28
665.118	55.3
665.313	-858.1
665.508	1218.54
665.703	1116.14
665.897	1128.43
666.092	352.25
666.287	331.77
666.482	-663.54
666.677	1925.09
666.872	1331.18
667.066	-923.63
667.261	-1064.94
667.456	131.07
667.651	1355.76
667.845	1798.12
668.04	352.25
668.235	-1449.96
668.429	1200.11
668.624	129.02
668.819	-788.47
669.013	-1538.02
669.208	661.49
669.402	-1443.82
669.597	-71.68
669.792	-765.94
669.986	2707.41
670.181	-2246.62
670.375	282.62
670.57	-1701.86
670.764	-1040.37
670.959	-448.51
671.153	-59.39
671.348	-284.67
671.542	2291.68
671.737	-2033.63
671.931	-2607.06
672.125	258.04
672.32	1513.45
672.514	1101.81
672.709	-1591.27
672.903	-28.67
673.097	-720.89
673.291	-1226.73
673.486	1294.32
673.68	-12.29
673.874	-897.01
674.069	-1081.33
674.263	536.57
674.457	1312.75
674.651	798.71
674.845	-759.8
675.04	3385.29
675.234	-1257.45
675.428	-249.85
675.622	-1363.95
675.816	-1705.96
676.01	-743.41
676.204	-167.93
676.398	92.16
676.592	-755.7
676.787	-839.67
676.981	-30.72
677.175	-90.11
677.369	-3160.02
677.563	4.1
677.757	-315.39
677.95	-1273.84
678.144	-2643.93
678.338	-993.26
678.532	550.9
678.726	-2396.12
678.92	2764.76
679.114	96.25
679.308	4.1
679.502	-3538.89
679.695	-2201.57
679.889	-571.38
680.083	-2342.88
680.277	-2381.79
680.471	-432.12
680.664	-1484.78
680.858	319.48
681.052	-385.02
681.245	-1153.01
681.439	511.99
681.633	-999.41
681.826	-499.7
682.02	-872.43
682.214	712.69
682.407	-1331.18
682.601	-817.14
682.795	-468.98
682.988	-522.23
683.182	-1003.5
683.375	-733.17
683.569	-868.34
683.762	626.68
683.956	1863.65
684.149	1492.97
684.343	1591.27
684.536	-1155.05
684.73	59.39
684.923	-2234.33
685.116	-1896.42
685.31	2058.21
685.503	759.8
685.696	-458.74
685.89	919.54
686.083	-1691.62
686.276	-1005.55
686.47	-59.39
686.663	-655.35
686.856	-335.87
687.05	1179.63
687.243	-552.95
687.436	1198.06
687.629	1529.83
687.822	389.11
688.016	-882.67
688.209	-1118.19
688.402	446.46
688.595	-217.08
688.788	-2111.46
688.981	-1744.87
689.174	2375.64
689.367	147.45
689.561	-698.36
689.754	-2566.1
689.947	-692.21
690.14	-145.41
690.333	-3112.91
690.526	-829.43
690.719	1490.92
690.912	1744.87
691.104	77.82
691.297	-389.11
691.49	100.35
691.683	-899.06
691.876	-2889.68
692.069	2394.08
692.262	-233.47
692.455	360.44
692.647	-468.98
692.84	-1562.6
693.033	454.65
693.226	466.94
693.419	-1513.45
693.611	-856.05
693.804	-159.74
693.997	421.88
694.189	-235.52
694.382	-1415.15
694.575	2957.27
694.767	-229.37
694.96	-1363.95
695.153	-487.42
695.345	143.36
695.538	1507.3
695.731	180.22
695.923	-665.59
696.116	225.28
696.308	1368.04
696.501	-96.25
696.693	1656.81
696.886	-937.97
697.078	-1941.47
697.271	344.06
697.463	555
697.655	-256
697.848	98.3
698.04	-1175.53
698.233	-2263.01
698.425	-616.44
698.617	1265.64
698.81	-1357.8
699.002	-1023.98
699.194	1720.29
699.387	704.5
699.579	-1224.69
699.771	-1933.28
699.963	-2570.2
700.156	-1808.36
700.348	884.72
700.54	0
700.732	-1118.19
700.924	-765.94
701.117	-770.04
701.309	-1200.11
701.501	-2097.12
701.693	3885
701.885	-997.36
702.077	1146.86
702.269	378.87
702.461	1775.59
702.653	-6.14
702.845	-702.45
703.037	235.52
703.229	1968.1
703.421	-1136.62
703.613	-1300.46
703.805	3243.98
703.997	405.5
704.189	966.64
704.381	-778.23
704.573	3405.77
704.765	-841.72
704.957	1236.97
705.148	-12.29
705.34	-837.62
705.532	4.1
705.724	-1193.97
705.916	-2013.15
706.107	1482.73
706.299	366.59
706.491	1900.52
706.682	1333.23
706.874	-487.42
707.066	-260.09
707.258	-1456.11
707.449	-417.79
707.641	5269.42
707.832	-112.64
708.024	-901.11
708.216	-335.87
708.407	663.54
708.599	-626.68
708.79	1828.84
708.982	-1562.6
709.173	-421.88
709.365	-1073.14
709.556	-366.59
709.748	-548.86
709.939	167.93
710.131	438.27
710.322	-2172.89
710.514	2244.57
710.705	-657.4
710.896	577.53
711.088	335.87
711.279	716.79
711.47	1671.14
711.662	1077.23
711.853	-1421.29
712.044	-2297.82
712.236	217.08
712.427	-8.19
712.618	-2545.63
712.809	-1214.45
713	-544.76
713.192	1275.88
713.383	-862.19
713.574	215.04
713.765	-16.38
713.956	-720.89
714.147	1769.44
714.338	-1662.95
714.53	1513.45
714.721	2199.52
714.912	-1206.25
715.103	-2054.11
715.294	634.87
715.485	862.19
715.676	-2291.68
715.867	-2854.87
716.058	-647.16
716.249	1325.04
716.44	-479.22
716.63	-1533.93
716.821	-339.96
717.012	1355.76
717.203	-1333.23
717.394	-954.35
717.585	-2179.04
717.776	-722.93
717.966	-1218.54
718.157	-1386.47
718.348	401.4
718.539	-151.55
718.73	819.19
718.92	1914.85
719.111	-954.35
719.302	368.63
719.492	-1114.1
719.683	575.48
719.874	-1193.97
720.064	3794.89
720.255	-2281.44
720.446	-382.97
720.636	1368.04
720.827	1153.01
721.017	368.63
721.208	-761.84
721.398	-937.97
721.589	909.3
721.779	333.82
721.97	-3289.04
722.16	-1366
722.351	-2052.06
722.541	-1011.7
722.732	1073.14
722.922	952.31
723.112	1667.05
723.303	-1941.47
723.493	-1359.85
723.683	1005.55
723.874	2029.54
724.064	296.96
724.254	1718.25
724.445	-1007.6
724.635	2015.2
724.825	-2785.24
725.015	-858.1
725.206	-774.13
725.396	1327.08
725.586	-1279.98
725.776	675.83
725.966	3375.05
726.157	1134.57
726.347	1843.17
726.537	-276.48
726.727	1931.23
726.917	-1374.19
727.107	-1112.05
727.297	-2787.29
727.487	1810.4
727.677	-1015.79
727.867	34.82
728.057	-288.76
728.247	229.37
728.437	833.52
728.627	-917.49
728.817	-903.15
729.007	251.9
729.197	602.1
729.387	-602.1
729.576	-366.59
729.766	1638.38
729.956	-542.71
730.146	-884.72
730.336	-1998.82
730.525	-323.58
730.715	-1173.49
730.905	-49.15
731.095	-847.86
731.284	659.45
731.474	1415.15
731.664	-839.67
731.853	-2312.16
732.043	-1206.25
732.233	-1736.68
732.422	1126.38
732.612	-1351.66
732.802	311.29
732.991	47.1
733.181	-2838.48
733.37	-1595.37
733.56	-845.81
733.749	813.04
733.939	-2140.13
734.128	831.48
734.318	2021.35
734.507	-913.39
734.697	-2551.77
734.886	1286.12
735.076	-1681.38
735.265	1685.48
735.454	419.83
735.644	-1773.54
735.833	-1337.32
736.022	-118.78
736.212	-1017.84
736.401	-559.1
736.59	1028.08
736.779	-729.08
736.969	-2172.89
737.158	180.22
737.347	-1429.48
737.536	-249.85
737.726	-1456.11
737.915	995.31
738.104	712.69
738.293	-759.8
738.482	59.39
738.671	-1343.47
738.86	-2373.6
739.049	757.75
739.238	-1425.39
739.427	-780.28
739.616	-1861.6
739.806	-1800.16
739.995	-2963.41
740.183	-2007.01
740.372	-71.68
740.561	-804.85
740.75	-3409.87
740.939	124.93
741.128	167.93
741.317	931.83
741.506	-1175.53
741.695	81.92
741.884	800.76
742.072	1552.36
742.261	-290.81
742.45	-524.28
742.639	528.38
742.828	305.15
743.016	-868.34
743.205	-1757.16
743.394	-1406.95
743.582	1535.98
743.771	-26.62
743.96	491.51
744.148	-8.19
744.337	20.48
744.526	364.54
744.714	-1093.62
744.903	3651.53
745.091	-22.53
745.28	1650.66
745.468	577.53
745.657	479.22
745.845	374.78
746.034	-724.98
746.222	-36.86
746.411	432.12
746.599	878.58
746.788	534.52
746.976	-796.66
747.165	-122.88
747.353	317.44
747.541	4186.05
747.73	-1761.25
747.918	1794.02
748.106	1101.81
748.295	1925.09
748.483	970.74
748.671	737.27
748.859	501.75
749.048	1994.72
749.236	360.44
749.424	10.24
749.612	2080.74
749.8	311.29
749.989	440.31
750.177	952.31
750.365	1648.61
750.553	1509.35
750.741	-1232.88
750.929	4448.19
751.117	546.81
751.305	1196.01
751.493	372.73
751.681	-552.95
751.869	722.93
752.057	1945.57
752.245	403.45
752.433	2265.05
752.621	1153.01
752.809	2453.47
752.997	2303.96
753.185	1953.76
753.373	1011.7
753.56	735.22
753.748	2047.97
753.936	1222.64
754.124	1914.85
754.312	636.92
754.499	3526.6
754.687	2207.71
754.875	2707.41
755.063	692.21
755.25	2639.83
755.438	3514.31
755.626	2516.95
755.813	180.22
756.001	2488.28
756.189	598.01
756.376	1001.46
756.564	1564.65
756.751	3669.96
756.939	215.04
757.127	3872.71
757.314	1538.02
757.502	118.78
757.689	3606.47
757.877	2772.95
758.064	2944.98
758.251	983.02
758.439	2906.07
758.626	3973.06
758.814	1026.03
759.001	3592.14
759.188	3631.05
759.376	-26.62
759.563	2701.27
759.75	3065.81
759.938	1257.45
760.125	1335.28
760.312	1949.67
760.5	1593.32
760.687	2891.73
760.874	792.56
761.061	2748.37
761.248	-540.66
761.436	5498.8
761.623	1460.2
761.81	2068.45
761.997	2858.96
762.184	1404.91
762.371	1171.44
762.558	1834.98
762.745	3301.33
762.932	2146.27
763.119	2375.64
763.306	2183.13
763.493	2160.61
763.68	2523.1
763.867	3694.54
764.054	696.31
764.241	1376.23
764.428	3614.66
764.615	2004.96
764.802	2148.32
764.989	993.26
765.176	2250.72
765.362	3213.26
765.549	1236.97
765.736	9103.22
765.923	3520.46
766.11	3618.76
766.296	2052.06
766.483	-75.77
766.67	2351.07
766.857	3332.05
767.043	1052.66
767.23	2430.94
767.417	3971.01
767.603	2805.72
767.79	1744.87
767.976	4429.76
768.163	4046.79
768.35	3145.68
768.536	1923.04
768.723	1994.72
768.909	3960.77
769.096	4775.86
769.282	2146.27
769.469	1802.21
769.655	4816.82
769.842	3030.99
770.028	864.24
770.214	2392.03
770.401	2461.66
770.587	1757.16
770.774	-327.68
770.96	-485.37
771.146	2797.53
771.333	3170.26
771.519	1871.84
771.705	2854.87
771.891	1388.52
772.078	6924.18
772.264	3596.23
772.45	2060.26
772.636	2783.19
772.822	1992.67
773.009	5545.9
773.195	3119.06
773.381	3174.35
773.567	3657.67
773.753	1605.61
773.939	1044.46
774.125	829.43
774.311	2574.3
774.497	995.31
774.683	1865.7
774.869	4052.93
775.055	5541.8
775.241	1701.86
775.427	3182.54
775.613	1712.1
775.799	4681.66
775.985	1339.37
776.171	2695.13
776.357	2914.26
776.543	2852.82
776.729	2035.68
776.914	2779.09
777.1	3938.24
777.286	6641.56
777.472	2600.92
777.657	2148.32
777.843	5646.25
778.029	5547.95
778.215	3454.92
778.4	2703.32
778.586	5902.25
778.772	4603.83
778.957	3948.48
779.143	1738.73
779.329	3141.58
779.514	2105.31
779.7	3200.98
779.885	1077.23
780.071	3637.19
780.256	3807.17
780.442	3635.14
780.627	1380.33
780.813	4472.76
780.998	5179.31
781.184	4349.89
781.369	2041.82
781.555	4650.94
781.74	3319.76
781.925	5470.12
782.111	2840.53
782.296	3387.34
782.481	4095.94
782.667	3575.75
782.852	4853.69
783.037	3227.6
783.223	3354.57
783.408	3403.72
783.593	4718.52
783.778	2854.87
783.963	4270.01
784.149	4673.46
784.334	3221.45
784.519	3737.54
784.704	2439.13
784.889	4083.65
785.074	2750.42
785.259	3438.54
785.444	6469.53
785.629	2637.78
785.814	2052.06
785.999	3817.41
786.184	7219.09
786.369	3327.95
786.554	2168.8
786.739	5769.13
786.924	4960.18
787.109	4835.25
787.294	6127.52
787.479	6389.66
787.664	5109.68
787.849	6643.61
788.034	6561.69
788.218	7067.54
788.403	6815.64
788.588	8150.92
788.773	7868.3
788.957	7266.19
789.142	10336.1
789.327	10002.28
789.512	9541.49
789.696	14106.41
789.881	15267.61
790.066	12498.75
790.25	15830.8
790.435	14061.35
790.619	16326.41
790.804	16406.28
790.989	16377.61
791.173	19668.69
791.358	17956.59
791.542	17174.27
791.727	18188.01
791.911	18175.72
792.096	18177.77
792.28	18999.01
792.465	19121.88
792.649	19496.66
792.833	21010.11
793.018	19961.55
793.202	21374.65
793.386	23445.15
793.571	22310.57
793.755	21554.87
793.939	20100.81
794.124	21083.84
794.308	21917.36
794.492	20809.41
794.676	20414.15
794.861	21237.44
795.045	22365.87
795.229	19269.34
795.413	21880.5
795.597	20242.12
795.781	19834.58
795.966	22349.48
796.15	19666.64
796.334	23236.25
796.518	20836.03
796.702	17266.42
796.886	18204.39
797.07	19410.65
797.254	17657.59
797.438	15593.23
797.622	14819.1
797.806	15015.71
797.99	15818.51
798.174	14018.35
798.358	15503.12
798.541	15324.95
798.725	15798.03
798.909	13072.18
799.093	13154.1
799.277	12504.9
799.461	13352.76
799.644	8912.76
799.828	11718.48
800.012	13518.64
800.196	11167.57
800.379	11155.29
800.563	9422.7
800.747	12328.77
800.93	10454.88
801.114	10334.05
801.298	9330.55
801.481	12291.91
801.665	12154.69
801.848	8451.97
802.032	9418.61
802.216	13227.83
802.399	9551.73
802.583	8517.5
802.766	7475.09
802.95	10239.84
803.133	11329.36
803.317	8069
803.5	7843.72
803.683	9383.79
803.867	7741.32
804.05	10221.41
804.233	11061.08
804.417	11630.41
804.6	8550.27
804.783	9434.99
804.967	10817.37
805.15	9690.99
805.333	9023.35
805.517	9420.66
805.7	7214.99
805.883	8359.81
806.066	9969.51
806.249	10264.42
806.432	6541.21
806.616	8634.24
806.799	6848.41
806.982	7577.48
807.165	8411.01
807.348	8347.52
807.531	6889.37
807.714	7450.51
807.897	8054.66
808.08	8925.05
808.263	9326.45
808.446	9015.16
808.629	7946.12
808.812	7057.3
808.995	7882.63
809.178	9693.04
809.361	9391.98
809.544	8916.86
809.726	10135.4
809.909	9133.94
810.092	8656.76
810.275	9078.65
810.458	10702.68
810.64	9099.13
810.823	8513.41
811.006	7808.9
811.189	10012.52
811.371	6786.97
811.554	7470.99
811.737	8714.11
811.919	8882.04
812.102	7038.87
812.285	5560.24
812.467	8083.33
812.65	7329.68
812.832	6453.15
813.015	9199.48
813.197	8705.92
813.38	8865.66
813.562	9570.16
813.745	5859.24
813.927	5558.19
814.11	8517.5
814.292	6877.08
814.475	6162.34
814.657	6864.79
814.839	7942.02
815.022	5951.4
815.204	10315.62
815.386	9811.82
815.569	8884.09
815.751	5074.87
815.933	8509.31
816.116	8664.96
816.298	8449.92
816.48	7073.68
816.662	6260.64
816.844	7688.07
817.027	7227.28
817.209	6178.72
817.391	5836.71
817.573	6915.99
817.755	6621.08
817.937	7278.48
818.119	6217.63
818.301	6365.09
818.483	6856.6
818.665	6256.54
818.847	7739.27
819.029	7169.94
819.211	5515.18
819.393	6848.41
819.575	9283.44
819.757	8722.3
819.939	7319.44
820.121	6770.58
820.303	6821.78
820.485	9664.36
820.666	9252.72
820.848	9015.16
821.03	6098.85
821.212	7964.55
821.394	4407.23
821.575	7028.63
821.757	8339.33
821.939	6883.22
822.121	6776.73
822.302	9105.27
822.484	7534.48
822.666	4020.16
822.847	5621.67
823.029	3377.1
823.21	7174.03
823.392	4001.73
823.573	5910.44
823.755	4378.56
823.937	4575.16
824.118	4876.21
824.3	10434.4
824.481	4700.09
824.662	4986.8
824.844	5437.36
825.025	6598.56
825.207	3817.41
825.388	5509.04
825.569	4175.81
825.751	4579.26
825.932	7808.9
826.113	3624.9
826.295	6354.85
826.476	5803.94
826.657	5265.33
826.839	4566.97
827.02	5947.3
827.201	8404.86
827.382	4917.17
827.563	5935.01
827.744	4409.28
827.926	5521.32
828.107	6969.24
828.288	3317.71
828.469	5228.46
828.65	6072.23
828.831	2842.58
829.012	4673.46
829.193	6686.62
829.374	4036.55
829.555	6918.04
829.736	9697.13
829.917	7571.34
830.098	6088.61
830.279	2410.46
830.46	3633.1
830.641	4718.52
830.822	4548.54
831.002	6242.21
831.183	3512.27
831.364	5627.82
831.545	5504.94
831.726	4507.58
831.906	4038.59
832.087	5228.46
832.268	5117.87
832.449	6033.32
832.629	2418.65
832.81	3823.56
832.991	3074
833.171	4724.66
833.352	4618.17
833.532	5896.1
833.713	3424.2
833.894	3672.01
834.074	1937.38
834.255	3071.95
834.435	3024.85
834.616	3164.11
834.796	3467.21
834.977	4999.09
835.157	6936.47
835.338	3010.51
835.518	2027.49
835.698	4005.83
835.879	2539.48
836.059	3895.24
836.239	3893.19
836.42	3682.25
836.6	4116.42
836.78	1404.91
836.961	2596.82
837.141	5013.43
837.321	2254.81
837.501	6932.37
837.682	2676.7
837.862	3434.44
838.042	8761.21
838.222	2592.73
838.402	3014.61
838.582	3338.19
838.763	4075.46
838.943	2756.57
839.123	5472.17
839.303	3608.52
839.483	4784.05
839.663	997.36
839.843	13254.45
840.023	4943.8
840.203	4710.33
840.383	2858.96
840.563	2349.02
840.742	3405.77
840.922	2193.37
841.102	4274.11
841.282	3198.93
841.462	3250.13
841.642	2938.84
841.822	1597.42
842.001	729.08
842.181	3772.36
842.361	3944.39
842.541	4583.35
842.72	3846.09
842.9	2912.21
843.08	3536.84
843.259	2631.64
843.439	2611.16
843.619	2150.37
843.798	3024.85
843.978	3753.93
844.157	2303.96
844.337	3938.24
844.517	2248.67
844.696	5162.93
844.876	3983.3
845.055	1777.64
845.235	4046.79
845.414	3180.5
845.593	1400.81
845.773	2250.72
845.952	511.99
846.132	1298.41
846.311	1273.84
846.49	3461.07
846.67	3692.49
846.849	1990.63
847.028	1247.21
847.208	3852.23
847.387	1740.77
847.566	5250.99
847.745	1396.71
847.924	3397.58
848.104	3704.78
848.283	3368.91
848.462	4245.44
848.641	4571.07
848.82	2838.48
848.999	5023.67
849.178	2281.44
849.358	4018.11
849.537	2895.83
849.716	2056.16
849.895	1200.11
850.074	4585.4
850.253	4769.72
850.432	3117.01
850.61	2715.61
850.789	2207.71
850.968	4888.5
851.147	4677.56
851.326	1920.99
851.505	2637.78
851.684	3102.67
851.863	4433.85
852.041	3162.06
852.22	2342.88
852.399	1982.43
852.578	3567.56
852.756	802.8
852.935	2310.11
853.114	4298.69
853.293	1353.71
853.471	5590.95
853.65	3190.74
853.828	2097.12
854.007	1589.22
854.186	3016.66
854.364	4483
854.543	3305.42
854.721	2047.97
854.9	3508.17
855.078	4843.45
855.257	2240.48
855.435	-124.93
855.614	2815.96
855.792	2236.38
855.971	2400.22
856.149	901.11
856.327	3446.73
856.506	2910.16
856.684	2025.44
856.862	1474.54
857.041	-507.9
857.219	4261.82
857.397	1724.39
857.576	1880.04
857.754	1806.31
857.932	3672.01
858.11	2310.11
858.288	2240.48
858.467	550.9
858.645	817.14
858.823	2213.85
859.001	2885.59
859.179	1236.97
859.357	1525.74
859.535	3299.28
859.713	3897.28
859.891	3469.26
860.069	5920.68
860.247	2004.96
860.425	487.42
860.603	3063.76
860.781	4431.8
860.959	3016.66
861.137	272.38
861.315	1398.76
861.493	2725.85
861.67	3958.72
861.848	3690.44
862.026	1759.21
862.204	1542.12
862.382	2019.3
862.559	2174.94
862.737	3198.93
862.915	3764.17
863.093	1994.72
863.27	3966.92
863.448	3975.11
863.626	2670.55
863.803	2297.82
863.981	1290.22
864.158	81.92
864.336	1384.43
864.514	1060.85
864.691	522.23
864.869	1474.54
865.046	960.5
865.224	2396.12
865.401	3743.69
865.578	1306.6
865.756	4429.76
865.933	106.49
866.111	3911.62
866.288	1095.66
866.465	1621.99
866.643	876.53
866.82	1454.06
866.997	1466.35
867.175	1820.64
867.352	1355.76
867.529	-364.54
867.706	1126.38
867.884	2195.42
868.061	1892.32
868.238	1443.82
868.415	659.45
868.592	1218.54
868.77	1196.01
868.947	3166.16
869.124	1273.84
869.301	-30.72
869.478	2174.94
869.655	-755.7
869.832	2150.37
870.009	4505.53
870.186	4634.55
870.363	2133.98
870.54	2066.4
870.717	1581.03
870.894	2000.87
871.071	2738.13
871.247	389.11
871.424	1185.77
871.601	1732.58
871.778	944.11
871.955	1759.21
872.132	2482.14
872.308	2107.36
872.485	1884.13
872.662	1445.87
872.839	3682.25
873.015	1085.42
873.192	2095.07
873.369	1654.76
873.545	1265.64
873.722	2035.68
873.898	1923.04
874.075	1531.88
874.252	2166.75
874.428	1789.92
874.605	2029.54
874.781	-583.67
874.958	602.1
875.134	2658.26
875.311	2453.47
875.487	2209.76
875.663	4169.66
875.84	1949.67
876.016	2809.81
876.193	2459.61
876.369	903.15
876.545	1028.08
876.722	606.2
876.898	1820.64
877.074	2158.56
877.25	2836.44
877.427	6961.05
877.603	1447.91
877.779	1331.18
877.955	1671.14
878.132	3760.07
878.308	3164.11
878.484	4763.58
878.66	409.59
878.836	1746.92
879.012	1691.62
879.188	2215.9
879.364	1886.18
879.54	1171.44
879.716	194.56
879.892	1966.05
880.068	3411.92
880.244	4847.54
880.42	563.19
880.596	1306.6
880.772	1185.77
880.948	796.66
881.124	2478.04
881.3	6231.97
881.475	1794.02
881.651	1433.58
881.827	1286.12
882.003	1591.27
882.178	-231.42
882.354	1269.74
882.53	917.49
882.706	1716.2
882.881	2009.06
883.057	270.33
883.233	1648.61
883.408	3270.61
883.584	952.31
883.759	51.2
883.935	36.86
884.111	-49.15
884.286	1253.36
884.462	-538.62
884.637	946.16
884.813	217.08
884.988	1304.56
885.164	4573.11
885.339	342.01
885.514	3147.73
885.69	716.79
885.865	-204.8
886.04	2205.66
886.216	841.72
886.391	2312.16
886.566	1595.37
886.742	-313.34
886.917	1724.39
887.092	3706.82
887.267	-223.23
887.443	-401.4
887.618	602.1
887.793	600.05
887.968	1859.56
888.143	90.11
888.318	1495.02
888.494	2559.96
888.669	1406.95
888.844	1327.08
889.019	1286.12
889.194	999.41
889.369	684.02
889.544	831.48
889.719	2676.7
889.894	3895.24
890.069	1923.04
890.243	2385.88
890.418	950.26
890.593	620.53
890.768	1511.4
890.943	3133.39
891.118	1185.77
891.293	1728.49
891.467	466.94
891.642	4499.39
891.817	819.19
891.992	1779.68
892.166	360.44
892.341	2785.24
892.516	1478.63
892.69	1775.59
892.865	-471.03
893.04	1140.72
893.214	2787.29
893.389	2129.89
893.563	4429.76
893.738	4474.81
893.912	753.65
894.087	1818.6
894.261	2840.53
894.436	471.03
894.61	3997.63
894.785	1679.33
894.959	1531.88
895.134	3282.89
895.308	376.83
895.482	2426.84
895.657	425.98
895.831	530.42
896.005	6922.13
896.18	954.35
896.354	1609.7
896.528	-258.04
896.702	1744.87
896.877	3364.81
897.051	-122.88
897.225	1857.51
897.399	1927.14
897.573	739.32
897.747	1710.05
897.922	1304.56
898.096	3254.22
898.27	45.06
898.444	542.71
898.618	1562.6
898.792	1472.49
898.966	1601.51
899.14	2148.32
899.314	2115.55
899.488	3211.21
899.662	1562.6
899.835	1562.6
900.009	1245.16
900.183	-129.02
900.357	4657.08
900.531	358.39
900.705	227.32
900.878	-524.28
901.052	436.22
901.226	2072.54
901.4	1505.26
901.573	180.22
901.747	-294.91
901.921	555
902.095	1140.72
902.268	2568.15
902.442	-368.63
902.615	-1230.83
902.789	2011.11
902.963	5978.02
903.136	307.2
903.31	2713.56
903.483	-892.91
903.657	1959.91
903.83	663.54
904.004	-2050.02
904.177	307.2
904.35	-61.44
904.524	-1689.57
904.697	360.44
904.871	530.42
905.044	1413.1
905.217	4589.5
905.391	3166.16
905.564	870.39
905.737	618.49
905.91	-315.39
906.084	-2047.97
906.257	460.79
906.43	-2150.37
906.603	108.54
906.776	-2994.13
906.949	-1036.27
907.123	-1157.1
907.296	-296.96
907.469	1961.95
907.642	-552.95
907.815	1292.27
907.988	-24.58
908.161	-897.01
908.334	-1093.62
908.507	858.1
908.68	583.67
908.853	-266.24
909.026	-722.93
909.199	-509.94
909.371	2242.53
909.544	1316.84
909.717	-163.84
909.89	-1220.59
910.063	-1196.01
910.236	-163.84
910.408	233.47
910.581	-2107.36
910.754	-2074.59
910.927	-2656.22
911.099	106.49
911.272	362.49
911.445	10.24
911.617	-638.97
911.79	1583.08
911.962	-505.85
912.135	-907.25
912.308	-159.74
912.48	-1755.11
912.653	-1218.54
912.825	-808.95
912.998	-702.45
913.17	1148.91
913.343	1366
913.515	-759.8
913.687	-1679.33
913.86	131.07
914.032	1413.1
914.205	-653.3
914.377	-245.76
914.549	-2953.17
914.721	376.83
914.894	-1669.09
915.066	-548.86
915.238	-1642.47
915.41	1908.71
915.583	165.89
915.755	-1853.41
915.927	-51.2
916.099	1001.46
916.271	-817.14
916.443	-1898.47
916.616	-2133.98
916.788	20451.02
916.96	2025.44
917.132	-3573.71
917.304	-493.56
917.476	1470.44
917.648	270.33
917.82	-2848.72
917.992	632.82
918.164	917.49
918.335	120.83
918.507	954.35
918.679	-2359.26
918.851	1511.4
919.023	-634.87
919.195	-90.11
919.366	-2123.74
919.538	-2562.01
919.71	-1581.03
919.882	-1423.34
920.053	-1820.64
920.225	-1091.57
920.397	1388.52
920.568	-1753.06
920.74	-1279.98
920.912	-1003.5
921.083	-1646.57
921.255	-2041.82
921.426	-2013.15
921.598	-145.41
921.77	-1003.5
921.941	-1892.32
922.113	-1886.18
922.284	1066.99
922.455	-1206.25
922.627	-2260.96
922.798	-1966.05
922.97	-1515.5
923.141	-1302.51
923.312	-3278.8
923.484	348.15
923.655	-2101.22
923.826	708.6
923.998	-1251.31
924.169	503.8
924.34	-1624.04
924.511	-108.54
924.683	-227.32
924.854	-1368.04
925.025	-442.36
925.196	657.4
925.367	638.97
925.538	-8.19
925.709	-436.22
925.881	247.8
926.052	-1279.98
926.223	-923.63
926.394	686.07
926.565	-958.45
926.736	-3368.91
926.907	-1779.68
927.078	157.69
927.248	3491.79
927.419	425.98
927.59	-2686.93
927.761	655.35
927.932	802.8
928.103	-608.25
928.274	-1282.03
928.444	-600.05
928.615	-1155.05
928.786	-1232.88
928.957	-2052.06
929.127	-1247.21
929.298	28.67
929.469	-1417.19
929.639	-649.21
929.81	-411.64
929.981	-210.94
930.151	167.93
930.322	3100.62
930.492	399.35
930.663	2924.5
930.833	-1621.99
931.004	-479.22
931.174	249.85
931.345	-38.91
931.515	-1697.77
931.686	-565.24
931.856	1845.22
932.027	-1959.91
932.197	659.45
932.367	-1828.84
932.538	1185.77
932.708	-1200.11
932.878	-241.66
933.048	-806.9
933.219	-1159.15
933.389	1648.61
933.559	-1576.94
933.729	-1820.64
933.9	239.61
934.07	-1896.42
934.24	-2277.34
934.41	-28.67
934.58	-212.99
934.75	587.77
934.92	-2936.79
935.09	151.55
935.26	-1087.47
935.43	1984.48
935.6	-1028.08
935.77	446.46
935.94	110.59
936.11	-1130.48
936.28	-1697.77
936.45	823.28
936.62	-32.77
936.79	364.54
936.96	-815.09
937.129	-937.97
937.299	-71.68
937.469	-86.01
937.639	-88.06
937.808	-962.55
937.978	-2076.64
938.148	1187.82
938.317	-49.15
938.487	133.12
938.657	-1308.65
938.826	-1462.25
938.996	-593.91
939.166	-3481.55
939.335	-2144.22
939.505	-53.25
939.674	-1236.97
939.844	-1951.71
940.013	94.21
940.183	-1976.29
940.352	-1982.43
940.522	-741.36
940.691	-1038.32
940.86	602.1
941.03	-1058.8
941.199	-235.52
941.368	286.72
941.538	1042.42
941.707	-1935.33
941.876	-692.21
942.046	763.89
942.215	-151.55
942.384	-2201.57
942.553	-487.42
942.722	-724.98
942.892	1527.78
943.061	-2725.85
943.23	333.82
943.399	3049.43
943.568	-772.08
943.737	1665
943.906	-169.98
944.075	-1581.03
944.244	1130.48
944.413	-1030.13
944.582	-2437.08
944.751	-55.3
944.92	-530.42
945.089	307.2
945.258	-724.98
945.427	-616.44
945.596	-894.96
945.764	-651.25
945.933	-1091.57
946.102	862.19
946.271	-770.04
946.44	-888.82
946.608	-1443.82
946.777	-1042.42
946.946	-270.33
947.114	1882.08
947.283	-929.78
947.452	-1595.37
947.62	-1169.39
947.789	700.41
947.958	-1308.65
948.126	276.48
948.295	8.19
948.463	-1128.43
948.632	-1206.25
948.8	-712.69
948.969	-1814.5
949.137	-747.51
949.305	-1568.74
949.474	657.4
949.642	352.25
949.811	366.59
949.979	-444.41
950.147	-2007.01
950.316	-1898.47
950.484	-2041.82
950.652	-1558.5
950.82	1312.75
950.989	-2879.44
951.157	-1568.74
951.325	-1970.15
951.493	1429.48
951.661	608.25
951.83	712.69
951.998	-2512.86
952.166	-811
952.334	-1732.58
952.502	2516.95
952.67	991.22
952.838	434.17
953.006	2285.53
953.174	22.53
953.342	90.11
953.51	-468.98
953.678	-608.25
953.846	-2650.07
954.014	-354.3
954.181	2047.97
954.349	-1425.39
954.517	-1947.62
954.685	-1828.84
954.853	-1302.51
955.02	-1607.66
955.188	-2189.28
955.356	-1449.96
955.524	997.36
955.691	-561.14
955.859	-1804.26
956.027	-585.72
956.194	2349.02
956.362	-1003.5
956.529	581.62
956.697	-1337.32
956.865	296.96
957.032	1314.8
957.2	-1562.6
957.367	-2181.09
957.535	344.06
957.702	626.68
957.87	-2093.02
958.037	110.59
958.204	-1130.48
958.372	712.69
958.539	-4.1
958.706	-473.08
958.874	3039.19
959.041	237.56
959.208	-1945.57
959.376	-1386.47
959.543	673.78
959.71	-145.41
959.877	935.92
960.044	-262.14
960.212	2359.26
960.379	2762.71
960.546	137.21
960.713	-2496.47
960.88	-602.1
961.047	-8.19
961.214	23006.88
961.381	1923.04
961.548	-909.3
961.715	-337.91
961.882	-2256.86
962.049	-782.32
962.216	-933.87
962.383	-1239.02
962.55	-999.41
962.717	1308.65
962.883	782.32
963.05	2162.65
963.217	475.13
963.384	-1169.39
963.551	-583.67
963.717	-1261.55
963.884	-53.25
964.051	260.09
964.218	1261.55
964.384	5330.86
964.551	-1906.66
964.717	-2562.01
964.884	-552.95
965.051	-1447.91
965.217	-2191.33
965.384	-2514.91
965.55	970.74
965.717	741.36
965.883	-55.3
966.05	-1286.12
966.216	1765.35
966.383	759.8
966.549	-104.45
966.716	-1013.74
966.882	-1601.51
967.048	-1236.97
967.215	-2293.73
967.381	-1257.45
967.547	1499.11
967.713	1927.14
967.88	538.62
968.046	-2336.73
968.212	-743.41
968.378	962.55
968.545	-2344.92
968.711	942.07
968.877	-540.66
969.043	-100.35
969.209	-2025.44
969.375	915.44
969.541	1794.02
969.707	2416.6
969.873	987.12
970.039	-669.69
970.205	1490.92
970.371	4300.73
970.537	1331.18
970.703	133.12
970.869	-966.64
971.035	1761.25
971.201	-108.54
971.367	-1544.17
971.532	-497.66
971.698	-555
971.864	1202.16
972.03	-1933.28
972.195	-1310.7
972.361	1880.04
972.527	-1296.36
972.693	2867.16
972.858	1492.97
973.024	-1761.25
973.19	-659.45
973.355	4.1
973.521	415.74
973.686	1138.67
973.852	-2605.02
974.017	3944.39
974.183	-2117.6
974.348	581.62
974.514	-2224.09
974.679	-294.91
974.845	-1343.47
975.01	-268.28
975.175	-2930.64
975.341	17037.05
975.506	-102.4
975.672	520.18
975.837	3426.25
976.002	-223.23
976.167	-817.14
976.333	4444.09
976.498	-841.72
976.663	-1730.53
976.828	833.52
976.993	-1099.76
977.159	92.16
977.324	360.44
977.489	2906.07
977.654	-217.08
977.819	-985.07
977.984	-448.51
978.149	2437.08
978.314	1183.73
978.479	-1134.57
978.644	-1908.71
978.809	-688.12
978.974	-1691.62
979.139	1798.12
979.304	-90.11
979.469	-724.98
979.633	-686.07
979.798	-606.2
979.963	-1654.76
980.128	2605.02
980.293	-1875.94
980.457	-1495.02
980.622	-2228.19
980.787	-1701.86
980.951	-423.93
981.116	-393.21
981.281	-1671.14
981.445	-231.42
981.61	727.03
981.775	-1728.49
981.939	-2557.91
982.104	1671.14
982.268	1060.85
982.433	1368.04
982.597	-1658.85
982.762	2582.49
982.926	622.58
983.091	-821.24
983.255	-2496.47
983.419	-1642.47
983.584	1382.38
983.748	-188.41
983.912	-122.88
984.077	1613.8
984.241	1898.47
984.405	-1865.7
984.57	1650.66
984.734	-651.25
984.898	-210.94
985.062	-1175.53
985.226	-1421.29
985.39	2346.97
985.555	63.49
985.719	1789.92
985.883	-28.67
986.047	-1318.89
986.211	520.18
986.375	-90.11
986.539	-1284.08
986.703	-1290.22
986.867	-149.5
987.031	507.9
987.195	-1191.92
987.359	-1470.44
987.523	360.44
987.686	-2164.7
987.85	-1697.77
988.014	372.73
988.178	-1161.2
988.342	673.78
988.506	516.09
988.669	-321.53
988.833	210.94
988.997	634.87
989.16	-557.05
989.324	-272.38
989.488	2498.52
989.651	90.11
989.815	3008.47
989.979	-1114.1
990.142	-20.48
990.306	-651.25
990.469	1548.26
990.633	1005.55
990.796	1959.91
990.96	-751.6
991.123	364.54
991.286	1540.07
991.45	915.44
991.613	-1564.65
991.777	-2029.54
991.94	-2125.79
992.103	462.84
992.267	2512.86
992.43	-929.78
992.593	350.2
992.756	518.14
992.92	468.98
993.083	524.28
993.246	-393.21
993.409	-2590.68
993.572	-2160.61
993.735	-675.83
993.899	290.81
994.062	-546.81
994.225	-958.45
994.388	147.45
994.551	2256.86
994.714	-522.23
994.877	-546.81
995.04	-1683.43
995.203	-1345.52
995.366	997.36
995.528	-1419.24
995.691	706.55
995.854	-1578.98
996.017	-681.97
996.18	-2533.34
996.343	-610.29
996.505	1628.14
996.668	573.43
996.831	-540.66
996.994	-503.8
997.156	-331.77
997.319	-1206.25
997.482	1255.4
997.644	-1542.12
997.807	1058.8
997.97	-1892.32
998.132	-1275.88
998.295	1202.16
998.457	163.84
998.62	-1105.9
998.782	-1552.36
998.945	147.45
999.107	43.01
999.27	-167.93
999.432	-774.13
999.594	407.55
999.757	1855.46
999.919	188.41
1000.081	-2226.14
1000.244	-258.04
1000.406	-63.49
1000.568	-270.33
1000.731	1732.58
1000.893	1413.1
1001.055	1370.09
1001.217	-618.49
1001.379	-2172.89
1001.542	-1589.22
1001.704	2922.45
1001.866	-792.56
1002.028	880.63
1002.19	360.44
1002.352	-1007.6
1002.514	-1400.81
1002.676	5068.72
1002.838	1490.92
1003	-579.58
1003.162	-1118.19
1003.324	1808.36
1003.486	1058.8
1003.648	-1222.64
1003.809	-614.39
1003.971	995.31
1004.133	-188.41
1004.295	-165.89
1004.457	-346.11
1004.618	401.4
1004.78	124.93
1004.942	3475.4
1005.104	-12.29
1005.265	-1421.29
1005.427	833.52
1005.589	-686.07
1005.75	159.74
1005.912	1693.67
1006.073	1699.81
1006.235	143.36
1006.396	-370.68
1006.558	-368.63
1006.72	-147.45
1006.881	280.57
1007.042	-1275.88
1007.204	-1863.65
1007.365	-1169.39
1007.527	792.56
1007.688	3030.99
1007.849	28.67
1008.011	-245.76
1008.172	405.5
1008.333	649.21
1008.495	-489.46
1008.656	-1974.24
1008.817	927.73
1008.978	2310.11
1009.139	-643.06
1009.301	528.38
1009.462	-2527.19
1009.623	974.83
1009.784	-1359.85
1009.945	124.93
1010.106	630.77
1010.267	313.34
1010.428	-1384.43
1010.589	-1974.24
1010.75	-186.37
1010.911	-1077.23
1011.072	-2295.77
1011.233	698.36
1011.394	-561.14
1011.555	86.01
1011.716	430.07
1011.877	-1288.17
1012.037	262.14
1012.198	-1257.45
1012.359	339.96
1012.52	-1427.43
1012.68	-434.17
1012.841	-8.19
1013.002	180.22
1013.163	-868.34
1013.323	354.3
1013.484	-1767.4
1013.644	-1243.12
1013.805	413.69
1013.966	-544.76
1014.126	2488.28
1014.287	-808.95
1014.447	-337.91
1014.608	1216.49
1014.768	-1081.33
1014.929	1064.94
1015.089	-1322.99
1015.249	86.01
1015.41	-6.14
1015.57	770.04
1015.731	-2176.99
1015.891	-872.43
1016.051	497.66
1016.211	-542.71
1016.372	1429.48
1016.532	-794.61
1016.692	-362.49
1016.852	522.23
1017.013	-604.15
1017.173	-247.8
1017.333	-1023.98
1017.493	-913.39
1017.653	-1507.31
1017.813	-1939.43
1017.973	-354.3
1018.133	-1443.82
1018.293	-1845.22
1018.453	-417.79
1018.613	-1992.67
1018.773	1992.67
1018.933	-124.93
1019.093	819.19
1019.253	-126.97
1019.413	1093.62
1019.573	-2166.75
1019.733	-368.63
1019.892	1763.3
1020.052	-559.1
1020.212	337.91
1020.372	86.01
1020.531	1353.71
1020.691	-446.46
1020.851	264.19
1021.01	90.11
1021.17	172.03
1021.33	-499.7
1021.489	-1613.8
1021.649	-120.83
1021.808	-61.44
1021.968	274.43
1022.127	-2713.56
1022.287	1642.47
1022.446	-743.41
1022.606	430.07
1022.765	-1521.64
1022.925	2506.71
1023.084	802.8
1023.244	1630.18
1023.403	-673.78
1023.562	-989.17
1023.722	-423.93
1023.881	-653.3
1024.04	-260.09
1024.199	458.74
1024.359	20.48
1024.518	-2140.13
1024.677	-886.77
1024.836	-847.86
1024.995	763.89
1025.154	-1073.14
1025.313	-239.61
1025.473	-1255.4
1025.632	-1275.88
1025.791	724.98
1025.95	-1335.28
1026.109	-919.54
1026.268	182.27
1026.427	1169.39
1026.586	1564.65
1026.744	-176.13
1026.903	5660.59
1027.062	-430.07
1027.221	860.15
1027.38	169.98
1027.539	954.35
1027.698	4597.69
1027.856	-1347.56
1028.015	462.84
1028.174	241.66
1028.333	143.36
1028.491	3907.52
1028.65	1359.85
1028.808	3542.99
1028.967	757.75
1029.126	563.19
1029.284	-1855.46
1029.443	249.85
1029.601	-767.99
1029.76	-1458.15
1029.918	-1249.26
1030.077	503.8
1030.235	2082.78
1030.394	-720.89
1030.552	917.49
1030.711	2535.39
1030.869	-593.91
1031.027	-747.51
1031.186	-2416.6
1031.344	-1163.25
1031.502	-425.98
1031.661	1122.29
1031.819	1908.71
1031.977	1095.66
1032.135	-1656.81
1032.293	-972.79
1032.452	-1431.53
1032.61	3493.83
1032.768	-1634.28
1032.926	-114.69
1033.084	3012.56
1033.242	-665.59
1033.4	-1400.81
1033.558	665.59
1033.716	-372.73
1033.874	-915.44
1034.032	-260.09
1034.19	-348.15
1034.348	2105.31
1034.506	-1843.17
1034.664	462.84
1034.822	-1617.9
1034.979	2291.68
1035.137	681.97
1035.295	-237.56
