Data from TmLN Sample 1_USBC44471_15-04-24-491.txt Node
Date: Wed Jul 29 15:04:24 MDT 2020
User: Montana Instruments
Spectrometer: USBC4447
Scans to average: 1
Trigger mode: 4
Integration Time (sec): 1.000000E1
Electric dark correction enabled: true
Boxcar width: 0
XAxis mode: Wavelengths
Number of Pixels in Spectrum: 3648
>>>>>Begin Spectral Data<<<<<
344.991	-5111.73
345.205	-5111.73
345.419	-5111.73
345.633	-5140.4
345.847	-5031.86
346.061	-223.23
346.275	704.5
346.489	-1198.06
346.703	-14.34
346.917	-1654.76
347.131	1124.33
347.345	-806.9
347.559	-886.77
347.773	1404.91
347.986	-45.06
348.2	2754.52
348.414	-1159.15
348.628	-712.69
348.842	-882.67
349.056	-1066.99
349.269	342.01
349.483	1263.6
349.697	1482.73
349.911	1191.92
350.125	-1150.96
350.338	405.5
350.552	778.23
350.766	-569.34
350.979	-1501.16
351.193	-559.1
351.407	5113.78
351.621	-143.36
351.834	-1396.71
352.048	2353.12
352.262	-374.78
352.475	3157.97
352.689	1085.42
352.902	1546.22
353.116	10.24
353.33	-1359.85
353.543	-1073.14
353.757	555
353.971	147.45
354.184	167.93
354.398	-563.19
354.611	651.25
354.825	2582.49
355.038	1212.4
355.252	-153.6
355.465	-301.05
355.679	-1781.73
355.892	817.14
356.106	1095.66
356.319	7126.93
356.533	-491.51
356.746	-225.28
356.96	-737.27
357.173	-1417.19
357.386	1261.55
357.6	-751.6
357.813	-923.63
358.027	-1902.56
358.24	-641.01
358.453	2500.57
358.667	-1204.21
358.88	972.79
359.094	-1028.08
359.307	319.48
359.52	-434.17
359.733	2072.54
359.947	-2238.43
360.16	1226.73
360.373	1507.3
360.587	-1089.52
360.8	-444.41
361.013	-329.72
361.226	-790.52
361.44	1994.72
361.653	1615.85
361.866	-1030.13
362.079	-1908.71
362.292	239.61
362.506	3215.31
362.719	514.04
362.932	2793.43
363.145	176.13
363.358	-901.11
363.571	-1265.64
363.785	-274.43
363.998	1110
364.211	1865.7
364.424	-1243.12
364.637	972.79
364.85	-626.68
365.063	1822.69
365.276	114.69
365.489	-1441.77
365.702	-432.12
365.915	311.29
366.128	-256
366.341	1726.44
366.554	3217.36
366.767	-643.06
366.98	-81.92
367.193	829.43
367.406	-1302.51
367.619	3629
367.832	1828.84
368.045	282.62
368.258	403.45
368.471	1110
368.684	-2002.91
368.896	-1732.58
369.109	47.1
369.322	-1056.75
369.535	-55.3
369.748	-1327.08
369.961	-696.31
370.173	-2664.41
370.386	-2453.47
370.599	2617.3
370.812	-561.14
371.025	-784.37
371.237	102.4
371.45	319.48
371.663	651.25
371.876	-514.04
372.088	4499.39
372.301	-841.72
372.514	-1425.39
372.726	466.94
372.939	-278.52
373.152	-499.7
373.364	901.11
373.577	3231.69
373.79	-710.65
374.002	-940.02
374.215	-2729.94
374.428	-1943.52
374.64	1329.13
374.853	-935.92
375.065	-579.58
375.278	3387.34
375.491	0
375.703	1294.32
375.916	-1941.47
376.128	-692.21
376.341	-1566.7
376.553	696.31
376.766	-1333.23
376.978	-1658.85
377.191	757.75
377.403	-1597.42
377.616	2895.83
377.828	3805.13
378.04	-1243.12
378.253	-624.63
378.465	493.56
378.678	1003.5
378.89	-1126.38
379.103	-739.32
379.315	299
379.527	-1527.78
379.74	-430.07
379.952	-112.64
380.164	-1454.06
380.377	1808.36
380.589	-100.35
380.801	63.49
381.014	1685.48
381.226	966.64
381.438	-38.91
381.65	-1269.74
381.863	-34.82
382.075	-1083.38
382.287	-2090.98
382.499	-1007.6
382.712	-309.24
382.924	118.78
383.136	-767.99
383.348	-2830.29
383.56	-77.82
383.772	-909.3
383.985	210.94
384.197	1228.78
384.409	-524.28
384.621	423.93
384.833	-77.82
385.045	116.73
385.257	-1290.22
385.469	-493.56
385.681	86.01
385.893	-120.83
386.105	-1015.79
386.318	-2322.4
386.53	-370.68
386.742	-2805.72
386.954	-2138.08
387.166	2713.56
387.378	-73.73
387.589	96.25
387.801	-2756.57
388.013	-1409
388.225	-1142.77
388.437	-2088.93
388.649	-1714.15
388.861	2443.23
389.073	944.11
389.285	-669.69
389.497	604.15
389.709	1314.8
389.92	-1204.21
390.132	-864.24
390.344	-696.31
390.556	-761.84
390.768	317.44
390.98	-1005.55
391.191	1556.46
391.403	616.44
391.615	262.14
391.827	-1245.16
392.038	-892.91
392.25	-362.49
392.462	-1994.72
392.674	-1933.28
392.885	-1386.47
393.097	-2207.71
393.309	-778.23
393.52	1005.55
393.732	-1572.84
393.944	503.8
394.155	253.95
394.367	-1341.42
394.579	573.43
394.79	-1144.81
395.002	198.65
395.213	-2486.23
395.425	-432.12
395.637	-985.07
395.848	-2246.62
396.06	403.45
396.271	208.89
396.483	-1101.81
396.694	-256
396.906	-516.09
397.117	1220.59
397.329	1449.96
397.54	-899.06
397.752	-1710.05
397.963	-989.17
398.175	366.59
398.386	1177.58
398.598	-888.82
398.809	-2236.38
399.02	712.69
399.232	802.8
399.443	88.06
399.655	-1142.77
399.866	-1181.68
400.077	-628.73
400.289	1124.33
400.5	14.34
400.711	765.94
400.923	-1464.3
401.134	-1034.22
401.345	-1837.03
401.556	3133.39
401.768	-993.26
401.979	-1085.42
402.19	716.79
402.401	-520.18
402.613	-8.19
402.824	-686.07
403.035	-2392.03
403.246	-1669.09
403.457	190.46
403.669	102.4
403.88	-1683.43
404.091	-1968.1
404.302	-1218.54
404.513	-641.01
404.724	-849.91
404.935	-733.17
405.146	784.37
405.358	-1753.06
405.569	-1460.2
405.78	-1904.61
405.991	-970.74
406.202	-43.01
406.413	-376.83
406.624	-1468.39
406.835	-413.69
407.046	2715.61
407.257	-141.31
407.468	1050.61
407.679	-374.78
407.89	1894.37
408.101	1888.23
408.312	-649.21
408.522	-1931.23
408.733	253.95
408.944	118.78
409.155	-583.67
409.366	884.72
409.577	-1875.94
409.788	-311.29
409.999	251.9
410.209	-702.45
410.42	-22.53
410.631	-1794.02
410.842	-389.11
411.053	4480.96
411.264	1062.9
411.474	-1220.59
411.685	-231.42
411.896	-1427.43
412.107	-1943.52
412.317	-1079.28
412.528	1746.92
412.739	-2090.98
412.949	-1347.56
413.16	0
413.371	1974.24
413.581	974.83
413.792	-571.38
414.003	3356.62
414.213	1689.57
414.424	-2070.5
414.635	-649.21
414.845	-1126.38
415.056	952.31
415.266	-1646.57
415.477	-2312.16
415.687	831.48
415.898	833.52
416.109	-1628.14
416.319	440.31
416.53	-2652.12
416.74	165.89
416.951	-1279.98
417.161	16.38
417.372	75.77
417.582	552.95
417.792	1511.4
418.003	2072.54
418.213	-686.07
418.424	548.86
418.634	-1585.13
418.844	933.87
419.055	1769.44
419.265	-1198.06
419.476	503.8
419.686	-964.59
419.896	-8.19
420.107	-1030.13
420.317	-862.19
420.527	-2.05
420.738	-548.86
420.948	976.88
421.158	1386.47
421.368	-600.05
421.579	-266.24
421.789	-1048.56
421.999	-3117.01
422.209	-464.89
422.419	-475.13
422.63	-215.04
422.84	-382.97
423.05	-1103.86
423.26	-1116.14
423.47	-186.37
423.681	-1955.81
423.891	761.84
424.101	1495.02
424.311	-743.41
424.521	-278.52
424.731	-727.03
424.941	-608.25
425.151	354.3
425.361	-1638.38
425.571	-2492.38
425.781	3696.58
425.991	704.5
426.201	1445.87
426.411	370.68
426.621	-1320.94
426.831	-1869.8
427.041	210.94
427.251	-286.72
427.461	1132.53
427.671	1040.37
427.881	-757.75
428.091	-71.68
428.301	2232.29
428.511	-38.91
428.721	-2910.16
428.93	-442.36
429.14	-1069.04
429.35	331.77
429.56	-1144.81
429.77	-557.05
429.98	-1179.63
430.189	-1040.37
430.399	2633.69
430.609	1429.48
430.819	329.72
431.029	-1460.2
431.238	-1015.79
431.448	-851.95
431.658	-2328.54
431.867	-739.32
432.077	155.65
432.287	-980.98
432.497	-950.26
432.706	-151.55
432.916	-466.94
433.125	-2709.46
433.335	-1263.6
433.545	1216.49
433.754	3639.24
433.964	-1300.46
434.174	-886.77
434.383	2062.3
434.593	-1107.95
434.802	833.52
435.012	-1339.37
435.221	284.67
435.431	-471.03
435.64	-962.55
435.85	-1118.19
436.059	434.17
436.269	542.71
436.478	-1042.42
436.688	-2101.22
436.897	-905.2
437.107	-2017.25
437.316	26154.61
437.525	159.74
437.735	12.29
437.944	-81.92
438.154	2492.38
438.363	186.37
438.572	2758.61
438.782	260.09
438.991	-929.78
439.2	-282.62
439.41	-882.67
439.619	-1091.57
439.828	178.17
440.038	30.72
440.247	1947.62
440.456	-1490.92
440.665	557.05
440.875	757.75
441.084	370.68
441.293	-1665
441.502	-1171.44
441.711	-1091.57
441.92	448.51
442.13	-432.12
442.339	-1187.82
442.548	-563.19
442.757	1708.01
442.966	-2834.39
443.175	-843.76
443.384	1341.42
443.593	1406.95
443.803	-2056.16
444.012	-288.76
444.221	-444.41
444.43	4511.68
444.639	319.48
444.848	1896.42
445.057	-1122.29
445.266	-1198.06
445.475	-2228.19
445.684	-1179.63
445.893	2179.04
446.102	378.87
446.311	-2977.75
446.52	139.26
446.728	2887.64
446.937	-2506.71
447.146	-3227.6
447.355	217.08
447.564	-339.96
447.773	1509.35
447.982	1241.07
448.191	552.95
448.399	-1177.58
448.608	-774.13
448.817	-526.33
449.026	937.97
449.235	-1474.54
449.443	907.25
449.652	-423.93
449.861	-966.64
450.07	192.51
450.278	1757.16
450.487	-2932.69
450.696	32.77
450.904	-1167.34
451.113	-634.87
451.322	548.86
451.53	-743.41
451.739	2748.37
451.948	-1021.94
452.156	75.77
452.365	3798.98
452.574	667.64
452.782	149.5
452.991	-593.91
453.199	610.29
453.408	198.65
453.616	-1472.49
453.825	1077.23
454.033	1114.09
454.242	3194.83
454.45	3366.86
454.659	415.74
454.867	13217.59
455.076	-1116.14
455.284	-817.14
455.493	-1671.14
455.701	-1148.91
455.91	2861.01
456.118	-915.44
456.326	-2068.45
456.535	2404.32
456.743	1093.62
456.951	-1849.32
457.16	897.01
457.368	632.82
457.576	-1544.17
457.785	2572.25
457.993	-77.82
458.201	-1228.78
458.41	600.05
458.618	-993.26
458.826	-57.34
459.034	-2797.53
459.243	-1466.35
459.451	215.04
459.659	-71.68
459.867	-501.75
460.075	-735.22
460.284	-251.9
460.492	-2189.28
460.7	-319.48
460.908	-540.66
461.116	-2310.11
461.324	-1253.36
461.532	-2369.5
461.741	-1726.44
461.949	-714.74
462.157	1873.89
462.365	-24.58
462.573	-22.53
462.781	464.89
462.989	-950.26
463.197	-1544.17
463.405	-1978.34
463.613	30.72
463.821	-2355.16
464.029	28.67
464.237	-962.55
464.445	-595.96
464.653	722.93
464.861	-329.72
465.069	1366
465.276	4540.35
465.484	-849.91
465.692	-655.35
465.9	-923.63
466.108	-671.73
466.316	839.67
466.524	-933.87
466.731	-362.49
466.939	1843.17
467.147	-235.52
467.355	-122.88
467.563	1472.49
467.77	802.8
467.978	-2467.8
468.186	448.51
468.393	1828.84
468.601	-401.4
468.809	-1769.44
469.017	-718.84
469.224	-1751.01
469.432	847.86
469.64	-1282.03
469.847	-1834.98
470.055	598.01
470.263	-1009.65
470.47	-1261.55
470.678	1257.45
470.885	-186.37
471.093	2473.95
471.3	806.9
471.508	-1564.65
471.716	-368.63
471.923	131.07
472.131	194.56
472.338	-1232.88
472.546	-741.36
472.753	2836.44
472.961	-1386.47
473.168	-53.25
473.375	-446.46
473.583	1054.7
473.79	-268.28
473.998	90.11
474.205	397.31
474.412	1732.58
474.62	-835.57
474.827	-1388.52
475.035	1302.51
475.242	-708.6
475.449	-1538.02
475.657	3704.78
475.864	2971.6
476.071	49.15
476.278	-1058.8
476.486	-606.2
476.693	225.28
476.9	423.93
477.107	282.62
477.315	-929.78
477.522	79.87
477.729	1460.2
477.936	-530.42
478.143	-1523.69
478.351	1345.52
478.558	-1198.06
478.765	-577.53
478.972	-403.45
479.179	301.05
479.386	774.13
479.593	882.67
479.8	856.05
480.007	-1679.33
480.215	-290.81
480.422	929.78
480.629	-2103.26
480.836	1210.35
481.043	3035.09
481.25	-643.06
481.457	-1394.67
481.664	-661.49
481.871	731.12
482.078	-1196.01
482.284	-1427.43
482.491	1972.19
482.698	1759.21
482.905	-1069.04
483.112	-2133.98
483.319	217.08
483.526	227.32
483.733	2125.79
483.94	-2455.51
484.146	-1460.2
484.353	12.29
484.56	-514.04
484.767	-2961.36
484.974	2031.58
485.18	1542.12
485.387	-528.38
485.594	-1284.08
485.801	1736.68
486.007	262.14
486.214	-956.4
486.421	-1849.32
486.627	-366.59
486.834	794.61
487.041	477.18
487.247	-1189.87
487.454	-1458.15
487.661	309.24
487.867	475.13
488.074	-1736.68
488.281	1046.51
488.487	-122.88
488.694	-813.04
488.9	-565.24
489.107	-1001.46
489.313	-782.32
489.52	-665.59
489.726	-1638.38
489.933	2770.9
490.139	2750.42
490.346	-550.9
490.552	215.04
490.759	-311.29
490.965	153.6
491.172	2961.36
491.378	-544.76
491.584	59.39
491.791	1566.7
491.997	-71.68
492.204	-528.38
492.41	3106.77
492.616	-1568.74
492.823	-1396.71
493.029	-1236.97
493.235	2344.92
493.442	-196.61
493.648	-821.24
493.854	-669.69
494.06	4384.7
494.267	733.17
494.473	-876.53
494.679	-1273.84
494.885	458.74
495.091	3069.91
495.298	851.95
495.504	-2277.34
495.71	-102.4
495.916	-1736.68
496.122	2402.27
496.328	468.98
496.535	749.56
496.741	-417.79
496.947	684.02
497.153	-274.43
497.359	305.15
497.565	532.47
497.771	1722.34
497.977	-124.93
498.183	-581.62
498.389	720.89
498.595	-1535.98
498.801	415.74
499.007	759.8
499.213	-325.63
499.419	-546.81
499.625	-10.24
499.831	2975.7
500.037	-729.08
500.243	-1396.71
500.448	-370.68
500.654	960.5
500.86	1861.6
501.066	-622.58
501.272	2295.77
501.478	-1775.59
501.684	-612.34
501.889	-1837.03
502.095	-1402.86
502.301	-235.52
502.507	528.38
502.712	-464.89
502.918	-1249.26
503.124	-1048.56
503.33	968.69
503.535	-700.41
503.741	294.91
503.947	-309.24
504.152	-296.96
504.358	-2117.6
504.564	-509.94
504.769	407.55
504.975	4118.47
505.181	-47.1
505.386	-1673.19
505.592	-593.91
505.797	806.9
506.003	-2453.47
506.208	1855.46
506.414	-491.51
506.619	174.08
506.825	610.29
507.03	-1834.98
507.236	-1023.98
507.441	-215.04
507.647	-835.57
507.852	40.96
508.058	1232.88
508.263	1150.96
508.469	-360.44
508.674	-2088.93
508.879	-471.03
509.085	-28.67
509.29	-1554.41
509.495	-1284.08
509.701	-905.2
509.906	788.47
510.111	-511.99
510.317	966.64
510.522	339.96
510.727	1976.29
510.933	-559.1
511.138	335.87
511.343	-675.83
511.548	761.84
511.754	-1441.77
511.959	2398.17
512.164	-32.77
512.369	3506.12
512.574	3588.04
512.779	-1460.2
512.985	-413.69
513.19	983.02
513.395	186.37
513.6	-970.74
513.805	-241.66
514.01	1980.39
514.215	-299
514.42	2785.24
514.625	-374.78
514.83	2658.26
515.035	-83.97
515.24	114.69
515.445	2920.4
515.65	1986.53
515.855	352.25
516.06	-468.98
516.265	647.16
516.47	1366
516.675	194.56
516.88	-2195.42
517.085	288.76
517.29	-329.72
517.495	1425.39
517.7	1634.28
517.904	-120.83
518.109	647.16
518.314	-364.54
518.519	624.63
518.724	610.29
518.928	598.01
519.133	-339.96
519.338	348.15
519.543	546.81
519.747	1185.77
519.952	2811.86
520.157	5797.8
520.362	1005.55
520.566	2705.37
520.771	-1669.09
520.976	1085.42
521.18	3928
521.385	-788.47
521.59	-974.83
521.794	524.28
521.999	2191.33
522.203	-821.24
522.408	-440.31
522.612	-862.19
522.817	849.91
523.022	2246.62
523.226	-96.25
523.431	-854
523.635	344.06
523.84	2129.89
524.044	-729.08
524.249	1687.53
524.453	3028.95
524.657	223.23
524.862	5973.92
525.066	-860.15
525.271	-4.1
525.475	1327.08
525.679	-169.98
525.884	-1636.33
526.088	1286.12
526.292	2613.21
526.497	180.22
526.701	-593.91
526.905	-98.3
527.11	440.31
527.314	-219.13
527.518	3315.66
527.722	-690.17
527.927	1220.59
528.131	-1871.84
528.335	5355.44
528.539	1798.12
528.744	2684.89
528.948	-1482.73
529.152	-1073.14
529.356	2590.68
529.56	811
529.764	129.02
529.968	-30.72
530.173	7888.78
530.377	6043.56
530.581	-1415.15
530.785	1712.1
530.989	-268.28
531.193	434.17
531.397	-1087.47
531.601	413.69
531.805	1791.97
532.009	1759.21
532.213	112.64
532.417	786.42
532.621	2195.42
532.825	3397.58
533.029	253.95
533.233	675.83
533.436	813.04
533.64	299
533.844	1726.44
534.048	-450.55
534.252	1417.19
534.456	3522.51
534.66	2363.36
534.863	278.52
535.067	528.38
535.271	2580.44
535.475	-288.76
535.679	1538.02
535.882	3018.71
536.086	1964
536.29	2291.68
536.493	876.53
536.697	1751.01
536.901	1150.96
537.104	2037.73
537.308	1247.21
537.512	1599.46
537.715	3954.63
537.919	1974.24
538.123	1800.16
538.326	1636.33
538.53	2856.92
538.733	3674.06
538.937	2488.28
539.141	2009.06
539.344	3284.94
539.548	2377.69
539.751	4788.15
539.955	5642.15
540.158	7485.33
540.362	5279.66
540.565	3375.05
540.768	4710.33
540.972	10813.27
541.175	9115.51
541.379	6832.02
541.582	6553.5
541.785	7903.11
541.989	9496.43
542.192	5650.35
542.396	6713.24
542.599	8705.92
542.802	8994.68
543.005	7761.8
543.209	6643.61
543.412	8236.93
543.615	8097.67
543.819	7817.1
544.022	6789.02
544.225	7784.33
544.428	7800.71
544.631	10307.43
544.835	7438.22
545.038	6330.27
545.241	6670.23
545.444	9602.93
545.647	8017.8
545.85	6938.52
546.054	5713.83
546.257	4024.26
546.46	6842.26
546.663	6021.03
546.866	6739.87
547.069	7002.01
547.272	5294
547.475	5859.24
547.678	5318.57
547.881	4343.74
548.084	4648.89
548.287	5183.41
548.49	2611.16
548.693	3899.33
548.896	1826.79
549.099	4542.39
549.302	2734.04
549.505	2162.65
549.707	1802.21
549.91	4194.24
550.113	2152.42
550.316	1800.16
550.519	4208.58
550.722	4296.64
550.924	1763.3
551.127	3256.27
551.33	2275.29
551.533	1753.06
551.736	1322.99
551.938	1349.61
552.141	2889.68
552.344	917.49
552.546	3108.82
552.749	1775.59
552.952	1886.18
553.154	1871.84
553.357	2047.97
553.56	1693.67
553.762	7057.3
553.965	5765.03
554.168	2189.28
554.37	3747.78
554.573	2838.48
554.775	4368.32
554.978	3276.75
555.18	479.22
555.383	1478.63
555.585	5152.69
555.788	2525.15
555.99	1421.29
556.193	2234.33
556.395	3170.26
556.598	1077.23
556.8	1796.07
557.003	2129.89
557.205	5588.91
557.407	1538.02
557.61	2172.89
557.812	2607.06
558.015	4237.25
558.217	1853.41
558.419	2428.89
558.622	3841.99
558.824	2549.72
559.026	1212.4
559.228	1961.95
559.431	3651.53
559.633	3358.67
559.835	1871.84
560.037	3338.19
560.24	4988.85
560.442	4077.51
560.644	1521.64
560.846	3526.6
561.048	3905.48
561.25	4497.34
561.453	3321.81
561.655	2103.26
561.857	2760.66
562.059	2344.92
562.261	4618.17
562.463	3002.32
562.665	2969.55
562.867	3850.18
563.069	3958.72
563.271	4814.77
563.473	3790.79
563.675	3407.82
563.877	3264.46
564.079	2226.14
564.281	5341.1
564.483	3798.98
564.685	3061.71
564.887	2574.3
565.089	4560.83
565.291	4657.08
565.493	1902.56
565.694	5273.52
565.896	2029.54
566.098	4302.78
566.3	5261.23
566.502	3002.32
566.704	5631.91
566.905	821.24
567.107	1568.74
567.309	1488.87
567.511	4431.8
567.712	1468.39
567.914	2731.99
568.116	727.03
568.317	4718.52
568.519	3395.53
568.721	563.19
568.922	387.07
569.124	2824.15
569.326	5240.75
569.527	2688.98
569.729	2555.86
569.93	6786.97
570.132	2213.85
570.334	4200.38
570.535	917.49
570.737	2082.78
570.938	6277.02
571.14	2283.49
571.341	3588.04
571.543	7036.82
571.744	2803.67
571.946	4495.29
572.147	1957.86
572.348	5451.69
572.55	4466.62
572.751	5050.29
572.953	2408.41
573.154	4517.82
573.355	6700.95
573.557	9142.13
573.758	3751.88
573.959	3585.99
574.161	5171.12
574.362	5371.82
574.563	7446.41
574.765	5953.45
574.966	6152.1
575.167	2371.55
575.368	5517.23
575.569	3962.82
575.771	5961.64
575.972	3174.35
576.173	4296.64
576.374	5601.19
576.575	5062.58
576.776	1558.5
576.978	2535.39
577.179	3319.76
577.38	4304.83
577.581	2930.64
577.782	3680.2
577.983	5181.36
578.184	5775.27
578.385	3583.95
578.586	4216.77
578.787	2707.41
578.988	4274.11
579.189	1976.29
579.39	2805.72
579.591	3790.79
579.792	2793.43
579.993	4845.49
580.194	4782.01
580.395	6008.74
580.596	4161.47
580.796	4976.56
580.997	2975.7
581.198	3903.43
581.399	5918.63
581.6	6098.85
581.801	3030.99
582.001	6705.05
582.202	2539.48
582.403	1699.81
582.604	7301.01
582.804	3751.88
583.005	4319.17
583.206	1185.77
583.407	5181.36
583.607	3182.54
583.808	2912.21
584.009	4913.08
584.209	4763.58
584.41	1787.88
584.61	3403.72
584.811	3499.98
585.012	2308.06
585.212	1953.76
585.413	3411.92
585.613	3471.31
585.814	2113.5
586.014	5119.92
586.215	2537.43
586.415	3321.81
586.616	2136.03
586.816	2762.71
587.017	4800.44
587.217	1777.64
587.418	6035.36
587.618	2869.2
587.819	2666.46
588.019	1245.16
588.219	651.25
588.42	3080.15
588.62	1058.8
588.82	1138.67
589.021	1572.84
589.221	3483.59
589.421	1777.64
589.622	4014.02
589.822	1314.8
590.022	5531.56
590.222	3710.92
590.423	1851.36
590.623	1052.66
590.823	3135.44
591.023	2858.96
591.223	753.65
591.423	5742.5
591.624	2740.18
591.824	2641.88
592.024	1333.23
592.224	2269.15
592.424	5476.27
592.624	2541.53
592.824	2953.17
593.024	1984.48
593.224	5099.44
593.424	4552.63
593.624	2678.74
593.824	2168.8
594.024	3037.14
594.224	1097.71
594.424	2363.36
594.624	602.1
594.824	1796.07
595.024	1505.26
595.224	2328.54
595.424	835.57
595.624	913.39
595.824	1255.4
596.023	3874.76
596.223	3821.51
596.423	1384.43
596.623	2822.1
596.823	-26.62
597.023	-546.81
597.222	6145.95
597.422	954.35
597.622	-165.89
597.822	1099.76
598.021	2256.86
598.221	1011.7
598.421	-339.96
598.62	1433.58
598.82	704.5
599.02	4816.82
599.219	4112.32
599.419	2424.8
599.618	624.63
599.818	2693.08
600.018	-413.69
600.217	991.22
600.417	3921.86
600.616	1542.12
600.816	1621.99
601.015	1732.58
601.215	1034.22
601.414	802.8
601.614	743.41
601.813	-356.35
602.013	2105.31
602.212	1421.29
602.412	475.13
602.611	2621.4
602.81	1964
603.01	2944.98
603.209	1318.89
603.408	-968.69
603.608	2494.43
603.807	1009.65
604.006	5646.25
604.206	200.7
604.405	1347.56
604.604	1877.99
604.803	1423.34
605.003	387.07
605.202	270.33
605.401	940.02
605.6	2445.27
605.8	520.18
605.999	511.99
606.198	1890.28
606.397	2031.58
606.596	972.79
606.795	2598.87
606.994	3598.28
607.193	997.36
607.393	3575.75
607.592	3835.85
607.791	1650.66
607.99	3885
608.189	3825.61
608.388	4579.26
608.587	4046.79
608.786	2373.6
608.985	815.09
609.184	2357.21
609.382	3502.03
609.581	2865.11
609.78	4792.25
609.979	4263.87
610.178	2924.5
610.377	2678.74
610.576	567.29
610.775	3319.76
610.973	3198.93
611.172	3835.85
611.371	2703.32
611.57	2306.01
611.769	4769.72
611.967	1587.18
612.166	4589.5
612.365	2740.18
612.564	3037.14
612.762	2770.9
612.961	3424.2
613.16	2260.96
613.358	2926.55
613.557	10.24
613.756	2979.79
613.954	4161.47
614.153	1349.61
614.351	1392.62
614.55	561.14
614.749	3631.05
614.947	2107.36
615.146	720.89
615.344	2392.03
615.543	151.55
615.741	2367.45
615.94	2944.98
616.138	823.28
616.337	3098.58
616.535	1161.2
616.733	190.46
616.932	1333.23
617.13	3739.59
617.329	4919.22
617.527	-856.05
617.725	-1478.63
617.924	-815.09
618.122	464.89
618.32	-731.12
618.519	-1234.93
618.717	2306.01
618.915	2127.84
619.114	1064.94
619.312	59.39
619.51	661.49
619.708	2127.84
619.906	-417.79
620.105	-481.27
620.303	-268.28
620.501	3788.74
620.699	-1417.19
620.897	897.01
621.095	1902.56
621.293	-901.11
621.492	1869.8
621.69	63.49
621.888	1138.67
622.086	3203.02
622.284	1101.81
622.482	473.08
622.68	919.54
622.878	309.24
623.076	81.92
623.274	71.68
623.472	362.49
623.67	1474.54
623.868	-2203.61
624.065	913.39
624.263	1048.56
624.461	1013.74
624.659	-536.57
624.857	3078.1
625.055	2344.92
625.253	-260.09
625.45	-30.72
625.648	90.11
625.846	247.8
626.044	387.07
626.242	366.59
626.439	2019.3
626.637	827.38
626.835	-16.38
627.032	1937.38
627.23	-1306.6
627.428	3286.99
627.626	1286.12
627.823	534.52
628.021	2559.96
628.218	1902.56
628.416	1474.54
628.614	-1105.9
628.811	-1513.45
629.009	-536.57
629.206	-141.31
629.404	-835.57
629.601	114.69
629.799	-1554.41
629.996	3252.17
630.194	1001.46
630.391	778.23
630.589	-606.2
630.786	1955.81
630.984	454.65
631.181	-2007.01
631.378	-616.44
631.576	1781.73
631.773	-1972.19
631.97	-1265.64
632.168	-1443.82
632.365	227.32
632.562	360.44
632.76	-1017.84
632.957	448.51
633.154	227.32
633.352	714.74
633.549	-649.21
633.746	2226.14
633.943	903.15
634.14	-430.07
634.338	2277.34
634.535	-376.83
634.732	-245.76
634.929	2811.86
635.126	628.73
635.323	184.32
635.52	2275.29
635.717	466.94
635.915	-249.85
636.112	184.32
636.309	-1685.48
636.506	-460.79
636.703	-2078.69
636.9	-288.76
637.097	4888.5
637.294	212.99
637.491	-909.3
637.688	2174.94
637.884	-950.26
638.081	-499.7
638.278	-198.65
638.475	-190.46
638.672	-405.5
638.869	-774.13
639.066	5517.23
639.263	821.24
639.459	671.73
639.656	-2166.75
639.853	-1546.22
640.05	14130.98
640.246	1892.32
640.443	-157.69
640.64	-2699.22
640.837	405.5
641.033	-1650.66
641.23	-153.6
641.427	-284.67
641.623	821.24
641.82	-491.51
642.017	-1193.97
642.213	-475.13
642.41	-491.51
642.606	1138.67
642.803	1394.67
643	253.95
643.196	-1292.27
643.393	2160.61
643.589	245.76
643.786	-974.83
643.982	3973.06
644.179	1316.84
644.375	-899.06
644.571	-452.6
644.768	-1288.17
644.964	-315.39
645.161	-241.66
645.357	2490.33
645.553	505.85
645.75	2183.13
645.946	182.27
646.143	-30.72
646.339	372.73
646.535	468.98
646.731	1390.57
646.928	-88.06
647.124	-1650.66
647.32	2277.34
647.516	1791.97
647.713	-1304.56
647.909	-106.49
648.105	-456.7
648.301	-2531.29
648.497	303.1
648.693	-397.31
648.89	-495.61
649.086	-159.74
649.282	-905.2
649.478	-407.55
649.674	163.84
649.87	2039.78
650.066	1218.54
650.262	-1009.65
650.458	1767.4
650.654	-1206.25
650.85	178.17
651.046	-421.88
651.242	-169.98
651.438	210.94
651.634	-1611.75
651.83	-765.94
652.026	475.13
652.222	-352.25
652.417	-262.14
652.613	1187.82
652.809	-1470.44
653.005	-1015.79
653.201	2201.57
653.397	-1017.84
653.592	-100.35
653.788	-1052.66
653.984	1454.06
654.18	4667.32
654.375	-825.33
654.571	-292.86
654.767	-325.63
654.962	-1058.8
655.158	-2256.86
655.354	-524.28
655.549	1140.72
655.745	1216.49
655.941	3274.7
656.136	-872.43
656.332	-1478.63
656.527	73.73
656.723	1255.4
656.918	-1830.88
657.114	-710.65
657.309	-274.43
657.505	897.01
657.7	1105.9
657.896	-1261.55
658.091	-1110
658.287	-720.89
658.482	-2224.09
658.678	-1066.99
658.873	225.28
659.068	3321.81
659.264	-491.51
659.459	28841.54
659.654	796.66
659.85	2269.15
660.045	-1589.22
660.24	1853.41
660.436	5167.03
660.631	-126.97
660.826	1896.42
661.021	212.99
661.217	2338.78
661.412	-892.91
661.607	-2111.46
661.802	-632.82
661.997	-456.7
662.192	516.09
662.388	-2457.56
662.583	-567.29
662.778	450.55
662.973	-1920.99
663.168	-2469.85
663.363	-944.11
663.558	3743.69
663.753	1277.93
663.948	-1859.56
664.143	-1605.61
664.338	215.04
664.533	880.63
664.728	-552.95
664.923	-1273.84
665.118	79.87
665.313	-739.32
665.508	1175.53
665.703	1218.54
665.897	1183.73
666.092	419.83
666.287	327.68
666.482	-636.92
666.677	1794.02
666.872	1484.78
667.066	-847.86
667.261	-1167.34
667.456	165.89
667.651	1302.51
667.845	1832.93
668.04	389.11
668.235	-1423.34
668.429	1075.18
668.624	65.53
668.819	-661.49
669.013	-1513.45
669.208	757.75
669.402	-1511.4
669.597	36.86
669.792	-745.46
669.986	2412.51
670.181	-2109.41
670.375	215.04
670.57	-1601.51
670.764	-923.63
670.959	-499.7
671.153	12.29
671.348	-393.21
671.542	2400.22
671.737	-1964
671.931	-2547.67
672.125	356.35
672.32	1572.84
672.514	1210.35
672.709	-1486.83
672.903	-32.77
673.097	-546.81
673.291	-1150.96
673.486	1421.29
673.68	20.48
673.874	-874.48
674.069	-1089.52
674.263	618.49
674.457	1462.25
674.651	937.97
674.845	-604.15
675.04	3622.86
675.234	-1128.43
675.428	-90.11
675.622	-1308.65
675.816	-1757.16
676.01	-712.69
676.204	-147.45
676.398	282.62
676.592	-780.28
676.787	-626.68
676.981	219.13
677.175	57.34
677.369	-3211.22
677.563	-169.98
677.757	-229.37
677.95	-1263.6
678.144	-2557.91
678.338	-860.15
678.532	694.26
678.726	-2404.32
678.92	2889.68
679.114	75.77
679.308	10.24
679.502	-3459.02
679.695	-2172.89
679.889	-638.97
680.083	-2185.18
680.277	-2277.34
680.471	-296.96
680.664	-1359.85
680.858	292.86
681.052	-143.36
681.245	-1138.67
681.439	698.36
681.633	-786.42
681.826	-401.4
682.02	-845.81
682.214	823.28
682.407	-1228.78
682.601	-780.28
682.795	-458.74
682.988	-542.71
683.182	-892.91
683.375	-475.13
683.569	-618.49
683.762	845.81
683.956	1970.15
684.149	1597.42
684.343	1662.95
684.536	-1208.3
684.73	-16.38
684.923	-2379.74
685.116	-1722.34
685.31	2068.45
685.503	866.29
685.696	-301.05
685.89	876.53
686.083	-1482.73
686.276	-1019.89
686.47	67.58
686.663	-673.78
686.856	-174.08
687.05	1259.5
687.243	-546.81
687.436	1216.49
687.629	1728.49
687.822	604.15
688.016	-1007.6
688.209	-1054.7
688.402	571.38
688.595	-143.36
688.788	-2023.39
688.981	-1611.75
689.174	2783.19
689.367	176.13
689.561	-854
689.754	-2570.2
689.947	-466.94
690.14	61.44
690.333	-3100.62
690.526	-720.89
690.719	1482.73
690.912	1748.97
691.104	243.71
691.297	-221.18
691.49	94.21
691.683	-825.33
691.876	-2785.24
692.069	2451.42
692.262	-110.59
692.455	423.93
692.647	-366.59
692.84	-1593.32
693.033	454.65
693.226	606.2
693.419	-1507.31
693.611	-735.22
693.804	196.6
693.997	569.34
694.189	-79.87
694.382	-1148.91
694.575	2838.48
694.767	-49.15
694.96	-1425.39
695.153	-393.21
695.345	235.52
695.538	1652.71
695.731	215.04
695.923	-489.46
696.116	94.21
696.308	1431.53
696.501	12.29
696.693	1935.33
696.886	-894.96
697.078	-1845.22
697.271	428.03
697.463	499.7
697.655	-124.93
697.848	143.36
698.04	-1097.71
698.233	-2107.36
698.425	-434.17
698.617	1390.57
698.81	-1284.08
699.002	-923.63
699.194	1787.88
699.387	833.52
699.579	-1167.34
699.771	-1757.16
699.963	-2453.47
700.156	-1697.77
700.348	888.82
700.54	-116.73
700.732	-987.12
700.924	-540.66
701.117	-686.07
701.309	-1069.04
701.501	-2166.75
701.693	3889.09
701.885	-1017.84
702.077	1046.51
702.269	393.21
702.461	1837.03
702.653	139.26
702.845	-536.57
703.037	417.79
703.229	1863.65
703.421	-1013.74
703.613	-1329.13
703.805	3258.32
703.997	466.94
704.189	1030.13
704.381	-845.81
704.573	3473.35
704.765	-770.04
704.957	1345.52
705.148	-79.87
705.34	-845.81
705.532	32.77
705.724	-1069.04
705.916	-1875.94
706.107	1593.32
706.299	344.06
706.491	1888.23
706.682	1441.77
706.874	-577.53
707.066	-335.87
707.258	-1447.91
707.449	-483.32
707.641	5322.67
707.832	-53.25
708.024	-692.21
708.216	-311.29
708.407	825.33
708.599	-436.22
708.79	1624.04
708.982	-1495.02
709.173	-364.54
709.365	-815.09
709.556	-321.53
709.748	-581.62
709.939	278.52
710.131	569.34
710.322	-2162.65
710.514	2420.7
710.705	-557.05
710.896	737.27
711.088	522.23
711.279	473.08
711.47	1875.94
711.662	1130.48
711.853	-1259.5
712.044	-2320.35
712.236	184.32
712.427	204.8
712.618	-2314.2
712.809	-1056.75
713	-315.39
713.192	1363.95
713.383	-905.2
713.574	12.29
713.765	151.55
713.956	-868.34
714.147	1859.56
714.338	-1693.67
714.53	1568.74
714.721	2408.41
714.912	-1265.64
715.103	-1982.43
715.294	489.46
715.485	1003.5
715.676	-2240.48
715.867	-2600.92
716.058	-628.73
716.249	1370.09
716.44	-413.69
716.63	-1533.93
716.821	-243.71
717.012	1322.99
717.203	-1138.67
717.394	-790.52
717.585	-2146.27
717.776	-804.85
717.966	-1167.34
718.157	-1411.05
718.348	622.58
718.539	-65.53
718.73	1011.7
718.92	2109.41
719.111	-796.66
719.302	538.62
719.492	-974.83
719.683	630.77
719.874	-1107.95
720.064	3887.04
720.255	-2097.12
720.446	-235.52
720.636	1525.74
720.827	1198.06
721.017	471.03
721.208	-643.06
721.398	-770.04
721.589	1015.79
721.779	321.53
721.97	-3270.61
722.16	-1462.25
722.351	-2015.2
722.541	-952.31
722.732	997.36
722.922	985.07
723.112	1767.4
723.303	-1699.81
723.493	-1239.02
723.683	1275.88
723.874	2099.17
724.064	313.34
724.254	1871.84
724.445	-993.26
724.635	2166.75
724.825	-2635.74
725.015	-991.22
725.206	-638.97
725.396	1161.2
725.586	-1425.39
725.776	817.14
725.966	3461.07
726.157	1093.62
726.347	1753.06
726.537	-317.44
726.727	1826.79
726.917	-1179.63
727.107	-978.93
727.297	-2707.41
727.487	1902.56
727.677	-825.33
727.867	186.37
728.057	-417.79
728.247	888.82
728.437	716.79
728.627	-948.21
728.817	-851.95
729.007	417.79
729.197	708.6
729.387	-688.12
729.576	-331.77
729.766	1746.92
729.956	-473.08
730.146	-929.78
730.336	-1841.12
730.525	-204.8
730.715	-913.39
730.905	-45.06
731.095	-722.93
731.284	800.76
731.474	1710.05
731.664	-620.53
731.853	-2443.23
732.043	-1322.99
732.233	-1728.49
732.422	1349.61
732.612	-1359.85
732.802	266.24
732.991	188.41
733.181	-2793.43
733.37	-1613.8
733.56	-641.01
733.749	686.07
733.939	-2093.02
734.128	751.6
734.318	2607.06
734.507	-727.03
734.697	-2306.01
734.886	1417.19
735.076	-1406.95
735.265	1869.8
735.454	350.2
735.644	-1624.04
735.833	-1259.5
736.022	-165.89
736.212	-1009.65
736.401	-606.2
736.59	1040.37
736.779	-546.81
736.969	-1953.76
737.158	102.4
737.347	-1318.89
737.536	-309.24
737.726	-1476.59
737.915	1132.53
738.104	589.81
738.293	-704.5
738.482	-129.02
738.671	-1271.79
738.86	-2205.66
739.049	976.88
739.238	-1296.36
739.427	-690.17
739.616	-1675.24
739.806	-1658.85
739.995	-2906.07
740.183	-1927.14
740.372	-172.03
740.561	-585.72
740.75	-3399.63
740.939	251.9
741.128	262.14
741.317	905.2
741.506	-1021.94
741.695	180.22
741.884	833.52
742.072	1544.17
742.261	-233.47
742.45	-595.96
742.639	468.98
742.828	270.33
743.016	-622.58
743.205	-1716.2
743.394	-1472.49
743.582	1482.73
743.771	63.49
743.96	677.88
744.148	-24.58
744.337	141.31
744.526	385.02
744.714	-745.46
744.903	3723.21
745.091	-77.82
745.28	1587.18
745.468	905.2
745.657	538.62
745.845	436.22
746.034	-770.04
746.222	90.11
746.411	378.87
746.599	837.62
746.788	667.64
746.976	-735.22
747.165	24.58
747.353	413.69
747.541	4274.11
747.73	-1779.68
747.918	1779.68
748.106	1361.9
748.295	2170.85
748.483	1138.67
748.671	583.67
748.859	700.41
749.048	2394.08
749.236	368.63
749.424	22.53
749.612	2205.66
749.8	200.7
749.989	614.39
750.177	1290.22
750.365	1810.4
750.553	1613.8
750.741	-1079.28
750.929	4603.83
751.117	499.7
751.305	1288.17
751.493	378.87
751.681	-473.08
751.869	978.93
752.057	1908.71
752.245	497.66
752.433	2394.08
752.621	1261.55
752.809	2594.78
752.997	2369.5
753.185	1865.7
753.373	1101.81
753.56	1019.89
753.748	2088.93
753.936	1236.97
754.124	1843.17
754.312	800.76
754.499	3571.66
754.687	2213.85
754.875	2973.65
755.063	1034.22
755.25	2969.55
755.438	3583.95
755.626	2623.45
755.813	294.91
756.001	2762.71
756.189	774.13
756.376	1208.3
756.564	1769.44
756.751	3598.28
756.939	309.24
757.127	4077.51
757.314	1564.65
757.502	464.89
757.689	3674.06
757.877	2764.76
758.064	2947.03
758.251	835.57
758.439	3084.24
758.626	4175.81
758.814	929.78
759.001	3684.3
759.188	3616.71
759.376	28.67
759.563	2838.48
759.75	3100.62
759.938	1372.14
760.125	1437.67
760.312	1869.8
760.5	1810.4
760.687	2736.09
760.874	954.35
761.061	2766.81
761.248	-462.84
761.436	5308.33
761.623	1677.29
761.81	2123.74
761.997	3121.1
762.184	1363.95
762.371	1322.99
762.558	1961.95
762.745	3780.55
762.932	2220
763.119	2469.85
763.306	2316.25
763.493	2396.12
763.68	2551.77
763.867	3782.6
764.054	673.78
764.241	1607.66
764.428	3768.26
764.615	1978.34
764.802	2111.46
764.989	995.31
765.176	2306.01
765.362	3223.5
765.549	1490.92
765.736	9598.83
765.923	3807.17
766.11	3848.13
766.296	2154.46
766.483	-141.31
766.67	2473.95
766.857	3379.15
767.043	1159.15
767.23	2551.77
767.417	3911.62
767.603	2899.92
767.79	1886.18
767.976	4497.34
768.163	4231.1
768.35	3266.51
768.536	1892.32
768.723	2037.73
768.909	4145.09
769.096	4663.22
769.282	2213.85
769.469	1748.97
769.655	4972.47
769.842	3067.86
770.028	1019.89
770.214	2557.91
770.401	2715.61
770.587	1720.29
770.774	-227.32
770.96	-323.58
771.146	2981.84
771.333	3284.94
771.519	1896.42
771.705	2861.01
771.891	1527.78
772.078	7196.56
772.264	3708.87
772.45	2152.42
772.636	2717.65
772.822	2115.55
773.009	5709.74
773.195	3348.43
773.381	3413.96
773.567	3889.09
773.753	1818.6
773.939	983.02
774.125	946.16
774.311	2705.37
774.497	1134.57
774.683	1734.63
774.869	4169.66
775.055	5578.67
775.241	1640.42
775.427	3160.02
775.613	1740.77
775.799	4792.25
775.985	1540.07
776.171	2754.52
776.357	2932.69
776.543	2944.98
776.729	2076.64
776.914	2789.33
777.1	4155.33
777.286	6739.87
777.472	2924.5
777.657	2410.46
777.843	5767.08
778.029	5633.96
778.215	3659.72
778.4	2846.68
778.586	6039.46
778.772	4743.1
778.957	4405.18
779.143	2031.58
779.329	3268.56
779.514	2158.56
779.7	3366.86
779.885	1095.66
780.071	3919.81
780.256	3971.01
780.442	3510.22
780.627	1486.83
780.813	4532.15
780.998	5193.65
781.184	4419.52
781.369	2291.68
781.555	4661.18
781.74	3321.81
781.925	5435.31
782.111	2889.68
782.296	3694.54
782.481	4190.14
782.667	3639.24
782.852	5013.43
783.037	3444.68
783.223	3497.93
783.408	3643.34
783.593	4902.84
783.778	2887.64
783.963	4446.14
784.149	4763.58
784.334	3565.51
784.519	3817.41
784.704	2592.73
784.889	4048.83
785.074	2707.41
785.259	3833.8
785.444	6627.23
785.629	2686.93
785.814	2166.75
785.999	3866.57
786.184	7042.96
786.369	3588.04
786.554	2269.15
786.739	5988.26
786.924	5191.6
787.109	4878.26
787.294	6328.22
787.479	6244.26
787.664	5353.39
787.849	6782.87
788.034	6862.74
788.218	7319.44
788.403	6690.71
788.588	8392.58
788.773	8120.2
788.957	7530.38
789.142	10372.96
789.327	10211.17
789.512	9768.81
789.696	14087.98
789.881	15302.42
790.066	12300.1
790.25	15941.39
790.435	14235.43
790.619	16645.89
790.804	16559.88
790.989	16471.81
791.173	19971.79
791.358	18515.69
791.542	17090.3
791.727	18040.56
791.911	18755.3
792.096	18056.94
792.28	18945.76
792.465	19480.28
792.649	19580.63
792.833	21239.48
793.018	20143.82
793.202	21364.41
793.386	23838.36
793.571	22644.39
793.755	21792.44
793.939	20201.16
794.124	21624.5
794.308	22148.78
794.492	21012.16
794.676	20586.18
794.861	21188.28
795.045	22632.1
795.229	19283.67
795.413	21755.57
795.597	20260.55
795.781	20270.79
795.966	22599.34
796.15	19637.97
796.334	23363.23
796.518	21016.26
796.702	17286.9
796.886	18208.49
797.07	19298.01
797.254	18261.74
797.438	15558.42
797.622	15023.9
797.806	15327
797.99	15914.77
798.174	14305.06
798.358	15806.22
798.541	15515.41
798.725	15834.89
798.909	12926.78
799.093	13385.52
799.277	12953.4
799.461	13494.07
799.644	9105.27
799.828	11403.09
800.012	13659.95
800.196	10936.15
800.379	11427.67
800.563	9232.24
800.747	12613.44
800.93	10438.5
801.114	10162.02
801.298	9578.35
801.481	12617.54
801.665	12392.26
801.848	8365.95
802.032	9822.06
802.216	13266.74
802.399	9617.26
802.583	8388.48
802.766	7505.81
802.95	10424.16
803.133	11411.28
803.317	8071.04
803.5	7860.1
803.683	9711.47
803.867	8050.57
804.05	10469.22
804.233	11280.21
804.417	11865.93
804.6	8597.37
804.783	9721.71
804.967	10948.44
805.15	9643.88
805.333	9217.91
805.517	9494.38
805.7	7425.93
805.883	8818.55
806.066	9957.22
806.249	10422.11
806.432	6940.57
806.616	8785.79
806.799	6854.55
806.982	7796.62
807.165	8521.6
807.348	8564.61
807.531	7204.75
807.714	7831.43
807.897	8451.97
808.08	8990.58
808.263	9373.55
808.446	9383.79
808.629	8155.01
808.812	7466.89
808.995	7937.93
809.178	9860.97
809.361	9252.72
809.544	9164.66
809.726	10157.92
809.909	9129.84
810.092	8435.58
810.275	9080.69
810.458	10850.14
810.64	9121.65
810.823	8654.72
811.006	7823.24
811.189	9987.94
811.371	7034.77
811.554	7737.23
811.737	9146.23
811.919	8931.19
812.102	6829.98
812.285	5676.97
812.467	8556.41
812.65	7157.65
812.832	6692.76
813.015	9138.04
813.197	8814.46
813.38	9105.27
813.562	9717.61
813.745	5830.57
813.927	5754.79
814.11	8552.32
814.292	7061.4
814.475	6066.08
814.657	6938.52
814.839	8120.2
815.022	6307.74
815.204	10530.66
815.386	9551.73
815.569	8644.48
815.751	5318.57
815.933	8818.55
816.116	8648.57
816.298	8474.49
816.48	7114.64
816.662	6399.9
816.844	7815.05
817.027	7313.3
817.209	6297.5
817.391	5816.23
817.573	6889.37
817.755	6879.13
817.937	7503.76
818.119	6727.58
818.301	6410.14
818.483	6733.72
818.665	6324.13
818.847	7899.02
819.029	7192.47
819.211	5580.71
819.393	6946.71
819.575	9402.22
819.757	8759.16
819.939	7600.01
820.121	6504.35
820.303	7045.01
820.485	9652.08
820.666	9158.52
820.848	9250.67
821.03	6537.12
821.212	7868.3
821.394	4640.7
821.575	7051.16
821.757	8449.92
821.939	6852.5
822.121	6838.17
822.302	9185.14
822.484	7559.05
822.666	4126.66
822.847	5676.97
823.029	3375.05
823.21	7274.39
823.392	4118.47
823.573	5877.67
823.755	4562.87
823.937	4571.07
824.118	4917.17
824.3	10395.49
824.481	4734.9
824.662	4908.98
824.844	5715.88
825.025	6905.75
825.207	3876.8
825.388	5445.55
825.569	4403.13
825.751	4925.36
825.932	8015.75
826.113	3667.91
826.295	6645.66
826.476	6021.03
826.657	5320.62
826.839	4835.25
827.02	6045.6
827.201	8329.09
827.382	5038
827.563	6143.91
827.744	4913.08
827.926	5537.71
828.107	7061.4
828.288	3608.52
828.469	5582.76
828.65	6236.06
828.831	2875.35
829.012	4671.42
829.193	7053.2
829.374	4167.62
829.555	6875.03
829.736	9842.54
829.917	7802.76
830.098	6176.67
830.279	2533.34
830.46	3657.67
830.641	4845.49
830.822	4775.86
831.002	6180.77
831.183	3702.73
831.364	5894.05
831.545	5736.36
831.726	4589.5
831.906	4407.23
832.087	5615.53
832.268	5187.5
832.449	6477.73
832.629	2471.9
832.81	3956.68
832.991	3231.69
833.171	4982.71
833.352	4566.97
833.532	6045.6
833.713	3436.49
833.894	3942.34
834.074	2072.54
834.255	3170.26
834.435	3323.85
834.616	3229.65
834.796	3506.12
834.977	4941.75
835.157	6952.85
835.338	3022.8
835.518	1953.76
835.698	3997.64
835.879	2889.68
836.059	3964.87
836.239	4044.74
836.42	3878.85
836.6	4171.71
836.78	1589.22
836.961	2971.6
837.141	5175.22
837.321	2437.08
837.501	6983.57
837.682	2914.26
837.862	3299.28
838.042	8796.03
838.222	2750.42
838.402	3084.24
838.582	3286.99
838.763	4118.47
838.943	3041.23
839.123	5412.78
839.303	3760.07
839.483	4906.93
839.663	845.81
839.843	13430.58
840.023	5205.94
840.203	4779.96
840.383	3006.42
840.563	2719.7
840.742	3436.49
840.922	2502.62
841.102	4188.1
841.282	3258.32
841.462	3344.33
841.642	3018.71
841.822	1734.63
842.001	780.28
842.181	3821.51
842.361	4005.83
842.541	4966.32
842.72	3901.38
842.9	2775
843.08	3336.14
843.259	2742.23
843.439	2723.8
843.619	2138.08
843.798	2977.75
843.978	3987.4
844.157	2506.71
844.337	4128.7
844.517	2285.53
844.696	5351.34
844.876	4194.24
845.055	1832.93
845.235	3876.8
845.414	3258.32
845.593	1599.46
845.773	2314.2
845.952	620.53
846.132	1261.55
846.311	1476.59
846.49	3633.1
846.67	3577.8
846.849	2103.26
847.028	1447.91
847.208	3846.09
847.387	1791.97
847.566	5365.68
847.745	1568.74
847.924	3442.64
848.104	3725.26
848.283	3469.26
848.462	4333.5
848.641	4681.66
848.82	2756.57
848.999	5011.38
849.178	2170.85
849.358	4143.04
849.537	3008.47
849.716	1972.19
849.895	1411.05
850.074	4618.17
850.253	4675.51
850.432	3346.38
850.61	2764.76
850.789	2174.94
850.968	4843.45
851.147	4693.94
851.326	1894.37
851.505	2961.36
851.684	3282.89
851.863	4349.89
852.041	3256.27
852.22	2543.58
852.399	1914.85
852.578	3811.27
852.756	968.69
852.935	2445.27
853.114	4327.36
853.293	1259.5
853.471	5734.31
853.65	3243.98
853.828	2066.4
854.007	1570.79
854.186	3037.14
854.364	4323.26
854.543	3332.05
854.721	2228.19
854.9	3837.89
855.078	4868.02
855.257	2318.3
855.435	20.48
855.614	2947.03
855.792	2281.44
855.971	2224.09
856.149	980.98
856.327	3563.47
856.506	2701.27
856.684	2070.5
856.862	1652.71
857.041	-436.22
857.219	4173.76
857.397	1720.29
857.576	2017.25
857.754	1937.38
857.932	3674.06
858.11	2422.75
858.288	2414.56
858.467	684.02
858.645	878.58
858.823	2117.6
859.001	3112.91
859.179	1265.64
859.357	1834.98
859.535	3481.55
859.713	3964.87
859.891	3428.3
860.069	6078.37
860.247	1912.8
860.425	432.12
860.603	3180.5
860.781	4304.83
860.959	2973.65
861.137	329.72
861.315	1193.97
861.493	3051.47
861.67	3897.28
861.848	3885
862.026	1861.6
862.204	1634.28
862.382	2054.11
862.559	2351.07
862.737	3274.7
862.915	3733.45
863.093	1933.28
863.27	4169.66
863.448	3983.3
863.626	2609.11
863.803	2330.59
863.981	1396.71
864.158	274.43
864.336	1503.21
864.514	1153.01
864.691	620.53
864.869	1527.78
865.046	1003.5
865.224	2469.85
865.401	3895.24
865.578	1298.41
865.756	4671.42
865.933	251.9
866.111	4075.46
866.288	1177.58
866.465	1869.8
866.643	878.58
866.82	1490.92
866.997	1464.3
867.175	1880.04
867.352	1394.67
867.529	-354.3
867.706	1150.96
867.884	2322.4
868.061	1992.67
868.238	1400.81
868.415	694.26
868.592	1265.64
868.77	1282.03
868.947	3450.83
869.124	1560.55
869.301	370.68
869.478	2346.97
869.655	-684.02
869.832	2090.98
870.009	4663.22
870.186	4462.52
870.363	2432.99
870.54	2113.5
870.717	1593.32
870.894	2013.15
871.071	2662.36
871.247	514.04
871.424	1101.81
871.601	1822.69
871.778	1136.62
871.955	1753.06
872.132	2543.58
872.308	2027.49
872.485	1708.01
872.662	1159.15
872.839	3878.85
873.015	1069.04
873.192	2277.34
873.369	1777.64
873.545	1525.74
873.722	2154.46
873.898	1783.78
874.075	1302.51
874.252	2160.61
874.428	1763.3
874.605	1949.67
874.781	-651.25
874.958	899.06
875.134	2629.59
875.311	2351.07
875.487	2490.33
875.663	4222.91
875.84	2058.21
876.016	2789.33
876.193	2523.1
876.369	905.2
876.545	933.87
876.722	849.91
876.898	1964
877.074	2330.59
877.25	2895.83
877.427	7255.95
877.603	1492.97
877.779	1439.72
877.955	1732.58
878.132	3964.87
878.308	3497.93
878.484	4935.6
878.66	516.09
878.836	1898.47
879.012	1824.74
879.188	2125.79
879.364	1763.3
879.54	1247.21
879.716	268.28
879.892	2090.98
880.068	3473.35
880.244	5181.36
880.42	702.45
880.596	1353.71
880.772	1085.42
880.948	905.2
881.124	2615.26
881.3	6377.37
881.475	1834.98
881.651	1761.25
881.827	1482.73
882.003	1683.43
882.178	-262.14
882.354	1279.98
882.53	899.06
882.706	1751.01
882.881	2281.44
883.057	518.14
883.233	1763.3
883.408	3332.05
883.584	983.02
883.759	192.51
883.935	108.54
884.111	51.2
884.286	1296.36
884.462	-425.98
884.637	1140.72
884.813	38.91
884.988	1294.32
885.164	4765.62
885.339	397.31
885.514	3164.11
885.69	804.85
885.865	-110.59
886.04	2400.22
886.216	1044.46
886.391	2580.44
886.566	1740.77
886.742	-311.29
886.917	1888.23
887.092	3766.21
887.267	-98.3
887.443	-425.98
887.618	503.8
887.793	665.59
887.968	2035.68
888.143	-139.26
888.318	1433.58
888.494	2574.3
888.669	1492.97
888.844	1456.11
889.019	1376.23
889.194	1122.29
889.369	518.14
889.544	974.83
889.719	2719.7
889.894	3946.44
890.069	2095.07
890.243	2363.36
890.418	1136.62
890.593	618.49
890.768	1527.78
890.943	3243.98
891.118	1128.43
891.293	1773.54
891.467	526.33
891.642	4712.38
891.817	1114.09
891.992	1849.32
892.166	477.18
892.341	2844.63
892.516	1566.7
892.69	1826.79
892.865	-352.25
893.04	1339.37
893.214	2904.02
893.389	2293.73
893.563	4468.67
893.738	4519.87
893.912	958.45
894.087	1955.81
894.261	2957.27
894.436	477.18
894.61	4165.57
894.785	1613.8
894.959	1298.41
895.134	3194.83
895.308	407.55
895.482	2609.11
895.657	466.94
895.831	677.88
896.005	7065.49
896.18	1046.51
896.354	1693.67
896.528	-325.63
896.702	1736.68
896.877	3471.31
897.051	10.24
897.225	1992.67
897.399	2172.89
897.573	765.94
897.747	1834.98
897.922	1564.65
898.096	3370.96
898.27	241.66
898.444	806.9
898.618	1757.16
898.792	1556.46
898.966	1730.53
899.14	2486.23
899.314	2076.64
899.488	3334.09
899.662	1513.45
899.835	1521.64
900.009	1548.26
900.183	-94.21
900.357	4671.42
900.531	428.03
900.705	210.94
900.878	-399.35
901.052	294.91
901.226	1075.18
901.4	1581.03
901.573	157.69
901.747	-274.43
901.921	888.82
902.095	962.55
902.268	2351.07
902.442	-155.65
902.615	-1134.57
902.789	1925.09
902.963	5920.68
903.136	337.91
903.31	2664.41
903.483	-690.17
903.657	2179.04
903.83	749.56
904.004	-1957.86
904.177	524.28
904.35	-104.45
904.524	-1732.58
904.697	389.11
904.871	565.24
905.044	1298.41
905.217	4859.83
905.391	3336.14
905.564	1032.18
905.737	684.02
905.91	-274.43
906.084	-2029.54
906.257	544.76
906.43	-2002.91
906.603	288.76
906.776	-3010.51
906.949	-972.79
907.123	-1206.25
907.296	-491.51
907.469	2056.16
907.642	-468.98
907.815	1351.66
907.988	-10.24
908.161	-985.07
908.334	-1126.38
908.507	847.86
908.68	520.18
908.853	-104.45
909.026	-620.53
909.199	-448.51
909.371	2146.27
909.544	1196.01
909.717	-53.25
909.89	-1218.54
910.063	-1220.59
910.236	-143.36
910.408	364.54
910.581	-2004.96
910.754	-2082.78
910.927	-2631.64
911.099	202.75
911.272	548.86
911.445	161.79
911.617	-655.35
911.79	1552.36
911.962	-473.08
912.135	-931.83
912.308	-55.3
912.48	-1636.33
912.653	-1093.62
912.825	-890.87
912.998	-747.51
913.17	1095.66
913.343	1497.07
913.515	-618.49
913.687	-1691.62
913.86	16.38
914.032	1615.85
914.205	-403.45
914.377	-202.75
914.549	-2904.02
914.721	632.82
914.894	-1333.23
915.066	-458.74
915.238	-1658.85
915.41	1789.92
915.583	200.7
915.755	-1554.41
915.927	-106.49
916.099	1021.94
916.271	-724.98
916.443	-1880.04
916.616	-2035.68
916.788	20584.13
916.96	2240.48
917.132	-3375.05
917.304	-348.15
917.476	1646.57
917.648	108.54
917.82	-2766.81
917.992	770.04
918.164	913.39
918.335	487.42
918.507	1112.05
918.679	-2254.81
918.851	1527.78
919.023	-589.82
919.195	-51.2
919.366	-2070.5
919.538	-2551.77
919.71	-1517.54
919.882	-1333.23
920.053	-1775.59
920.225	-1075.18
920.397	1437.67
920.568	-1724.39
920.74	-1331.18
920.912	-942.07
921.083	-1372.14
921.255	-1947.62
921.426	-2056.16
921.598	-151.55
921.77	-827.38
921.941	-2009.06
922.113	-1730.53
922.284	1132.53
922.455	-1118.19
922.627	-2119.65
922.798	-2045.92
922.97	-1470.44
923.141	-1468.39
923.312	-3186.64
923.484	544.76
923.655	-1998.82
923.826	628.73
923.998	-1132.53
924.169	731.12
924.34	-1632.23
924.511	180.22
924.683	-337.91
924.854	-1218.54
925.025	-184.32
925.196	712.69
925.367	651.25
925.538	118.78
925.709	-344.06
925.881	624.63
926.052	-1304.56
926.223	-794.61
926.394	718.84
926.565	-808.95
926.736	-3295.18
926.907	-1785.83
927.078	241.66
927.248	3665.86
927.419	511.99
927.59	-2697.17
927.761	792.56
927.932	700.41
928.103	-567.29
928.274	-1314.8
928.444	-602.1
928.615	-1083.38
928.786	-1273.84
928.957	-2060.26
929.127	-1257.45
929.298	86.01
929.469	-1155.05
929.639	-636.92
929.81	-260.09
929.981	-206.84
930.151	266.24
930.322	2643.93
930.492	411.64
930.663	3205.07
930.833	-1671.14
931.004	-436.22
931.174	352.25
931.345	174.08
931.515	-1746.92
931.686	-454.65
931.856	1837.03
932.027	-1908.71
932.197	671.73
932.367	-1834.98
932.538	1304.56
932.708	-1138.67
932.878	-155.65
933.048	-761.84
933.219	-1210.35
933.389	1509.35
933.559	-1554.41
933.729	-1716.2
933.9	348.15
934.07	-1865.7
934.24	-2222.05
934.41	28.67
934.58	-47.1
934.75	655.35
934.92	-2791.38
935.09	118.78
935.26	-1185.77
935.43	2101.22
935.6	-796.66
935.77	595.96
935.94	331.77
936.11	-1148.91
936.28	-1488.87
936.45	952.31
936.62	129.02
936.79	419.83
936.96	-624.63
937.129	-868.34
937.299	61.44
937.469	-79.87
937.639	51.2
937.808	-806.9
937.978	-2158.56
938.148	1232.88
938.317	-36.86
938.487	331.77
938.657	-1204.21
938.826	-1351.66
938.996	-673.78
939.166	-3340.24
939.335	-1951.71
939.505	28.67
939.674	-1185.77
939.844	-1898.47
940.013	149.5
940.183	-2045.92
940.352	-2029.54
940.522	-651.25
940.691	-1028.08
940.86	473.08
941.03	-909.3
941.199	-18.43
941.368	385.02
941.538	1259.5
941.707	-1798.12
941.876	-573.43
942.046	815.09
942.215	-198.65
942.384	-1957.86
942.553	-401.4
942.722	-704.5
942.892	1458.15
943.061	-2645.98
943.23	278.52
943.399	3176.4
943.568	-659.45
943.737	1724.39
943.906	-67.58
944.075	-1351.66
944.244	1234.93
944.413	-974.83
944.582	-2439.13
944.751	-180.22
944.92	-460.79
945.089	380.92
945.258	-686.07
945.427	-511.99
945.596	-569.34
945.764	-677.88
945.933	-1142.77
946.102	847.86
946.271	-616.44
946.44	-931.83
946.608	-1349.61
946.777	-874.48
946.946	-282.62
947.114	1947.62
947.283	-745.46
947.452	-1603.56
947.62	-1028.08
947.789	831.48
947.958	-1177.58
948.126	344.06
948.295	258.04
948.463	-890.87
948.632	-1050.61
948.8	-681.97
948.969	-1628.14
949.137	-665.59
949.305	-1769.44
949.474	575.48
949.642	511.99
949.811	507.9
949.979	-446.46
950.147	-1957.86
950.316	-1896.42
950.484	-2185.18
950.652	-1458.15
950.82	1310.7
950.989	-2813.91
951.157	-1597.42
951.325	-1978.34
951.493	1355.76
951.661	737.27
951.83	802.8
951.998	-2465.75
952.166	-612.34
952.334	-1687.53
952.502	2570.2
952.67	806.9
952.838	567.29
953.006	2408.41
953.174	8.19
953.342	172.03
953.51	-303.1
953.678	-540.66
953.846	-2510.81
954.014	-309.24
954.181	1935.33
954.349	-1339.37
954.517	-1773.54
954.685	-1796.07
954.853	-1146.86
955.02	-1576.94
955.188	-2185.18
955.356	-1310.7
955.524	1105.9
955.691	-595.96
955.859	-1650.66
956.027	-536.57
956.194	2641.88
956.362	-925.68
956.529	571.38
956.697	-1169.39
956.865	268.28
957.032	1374.19
957.2	-2271.2
957.367	-2007.01
957.535	342.01
957.702	659.45
957.87	-2007.01
958.037	147.45
958.204	-1232.88
958.372	831.48
958.539	169.98
958.706	-327.68
958.874	2856.92
959.041	270.33
959.208	-2037.73
959.376	-1277.93
959.543	876.53
959.71	-151.55
959.877	1087.47
960.044	-274.43
960.212	2365.4
960.379	2863.06
960.546	198.65
960.713	-2412.51
960.88	-407.55
961.047	94.21
961.214	23381.66
961.381	2248.67
961.548	-741.36
961.715	-231.42
961.882	-2181.09
962.049	-767.99
962.216	-940.02
962.383	-1325.04
962.55	-798.71
962.717	1417.19
962.883	872.43
963.05	2537.43
963.217	471.03
963.384	-1208.3
963.551	-450.55
963.717	-1290.22
963.884	-104.45
964.051	294.91
964.218	1374.19
964.384	5406.64
964.551	-1703.91
964.717	-2516.95
964.884	-473.08
965.051	-1361.9
965.217	-2146.27
965.384	-2533.34
965.55	1026.03
965.717	937.97
965.883	8.19
966.05	-1261.55
966.216	1908.71
966.383	968.69
966.549	-14.34
966.716	-839.67
966.882	-1576.94
967.048	-1275.88
967.215	-2105.31
967.381	-1241.07
967.547	1677.29
967.713	2101.22
967.88	450.55
968.046	-2187.23
968.212	-874.48
968.378	911.35
968.545	-2195.42
968.711	1052.66
968.877	-608.25
969.043	-94.21
969.209	-2070.5
969.375	1138.67
969.541	2068.45
969.707	2588.63
969.873	931.83
970.039	-772.08
970.205	1529.83
970.371	4558.78
970.537	1452.01
970.703	120.83
970.869	-849.91
971.035	1638.38
971.201	165.89
971.367	-1501.16
971.532	-385.02
971.698	-466.94
971.864	1288.17
972.03	-1810.4
972.195	-1159.15
972.361	2035.68
972.527	-1177.58
972.693	3028.95
972.858	1372.14
973.024	-1671.14
973.19	-403.45
973.355	200.7
973.521	733.17
973.686	1417.19
973.852	-2365.4
974.017	3962.82
974.183	-2109.41
974.348	694.26
974.514	-2193.37
974.679	-305.15
974.845	-1331.18
975.01	-266.24
975.175	-2768.85
975.341	17030.91
975.506	-262.14
975.672	423.93
975.837	3624.9
976.002	-98.3
976.167	-808.95
976.333	4356.03
976.498	-892.91
976.663	-1638.38
976.828	962.55
976.993	-950.26
977.159	184.32
977.324	438.27
977.489	2901.97
977.654	4.1
977.819	-999.41
977.984	-534.52
978.149	2566.1
978.314	1370.09
978.479	-1159.15
978.644	-1771.49
978.809	-577.53
978.974	-1507.31
979.139	1980.39
979.304	122.88
979.469	-706.55
979.633	-700.41
979.798	-557.05
979.963	-1533.93
980.128	2725.85
980.293	-1767.4
980.457	-1671.14
980.622	-2176.99
980.787	-1628.14
980.951	-159.74
981.116	-292.86
981.281	-1691.62
981.445	-344.06
981.61	671.73
981.775	-1650.66
981.939	-2455.51
982.104	1912.8
982.268	1093.62
982.433	1294.32
982.597	-1550.31
982.762	2693.08
982.926	829.43
983.091	-507.9
983.255	-2273.25
983.419	-1773.54
983.584	1552.36
983.748	-30.72
983.912	-110.59
984.077	1873.89
984.241	1953.76
984.405	-1779.68
984.57	1877.99
984.734	-569.34
984.898	-233.47
985.062	-1124.33
985.226	-1243.12
985.39	2430.94
985.555	22.53
985.719	1757.16
985.883	346.11
986.047	-1290.22
986.211	509.94
986.375	34.82
986.539	-1165.29
986.703	-1239.02
986.867	-100.35
987.031	563.19
987.195	-1044.46
987.359	-1482.73
987.523	319.48
987.686	-1990.63
987.85	-1755.11
988.014	589.81
988.178	-1093.62
988.342	724.98
988.506	681.97
988.669	-339.96
988.833	137.21
988.997	692.21
989.16	-456.7
989.324	-278.52
989.488	2856.92
989.651	135.17
989.815	3117.01
989.979	-935.92
990.142	53.25
990.306	-598.01
990.469	1517.54
990.633	978.93
990.796	2043.87
990.96	-612.34
991.123	155.65
991.286	1597.42
991.45	833.52
991.613	-1562.6
991.777	-2090.98
991.94	-1916.9
992.103	647.16
992.267	2703.32
992.43	-774.13
992.593	382.97
992.756	825.33
992.92	544.76
993.083	638.97
993.246	-317.44
993.409	-2463.71
993.572	-1992.67
993.735	-544.76
993.899	274.43
994.062	-423.93
994.225	-794.61
994.388	174.08
994.551	2344.92
994.714	-311.29
994.877	-364.54
995.04	-1558.5
995.203	-1249.26
995.366	1142.77
995.528	-1255.4
995.691	811
995.854	-1349.61
996.017	-647.16
996.18	-2473.95
996.343	-557.05
996.505	1761.25
996.668	628.73
996.831	-436.22
996.994	-483.32
997.156	-233.47
997.319	-1245.16
997.482	1359.85
997.644	-1597.42
997.807	1093.62
997.97	-1796.07
998.132	-1200.11
998.295	1273.84
998.457	362.49
998.62	-1028.08
998.782	-1591.27
998.945	182.27
999.107	-98.3
999.27	8.19
999.432	-737.27
999.594	571.38
999.757	1841.12
999.919	155.65
1000.081	-2097.12
1000.244	-331.77
1000.406	-129.02
1000.568	-122.88
1000.731	1648.61
1000.893	1529.83
1001.055	1398.76
1001.217	-663.54
1001.379	-2176.99
1001.542	-1366
1001.704	2947.03
1001.866	-735.22
1002.028	782.32
1002.19	294.91
1002.352	-1021.94
1002.514	-1318.89
1002.676	5124.02
1002.838	1642.47
1003	-522.23
1003.162	-1071.09
1003.324	2068.45
1003.486	1155.05
1003.648	-1140.72
1003.809	-555
1003.971	1060.85
1004.133	-147.45
1004.295	-385.02
1004.457	-311.29
1004.618	591.86
1004.78	212.99
1004.942	3536.84
1005.104	-2.05
1005.265	-1409
1005.427	878.58
1005.589	-632.82
1005.75	385.02
1005.912	1693.67
1006.073	1843.17
1006.235	260.09
1006.396	-96.25
1006.558	-286.72
1006.72	-45.06
1006.881	323.58
1007.042	-1185.77
1007.204	-1873.89
1007.365	-1251.31
1007.527	1085.42
1007.688	2861.01
1007.849	-57.34
1008.011	-143.36
1008.172	413.69
1008.333	671.73
1008.495	-356.35
1008.656	-2029.54
1008.817	858.1
1008.978	2355.16
1009.139	-569.34
1009.301	522.23
1009.462	-2459.61
1009.623	925.68
1009.784	-1286.12
1009.945	200.7
1010.106	888.82
1010.267	188.41
1010.428	-1159.15
1010.589	-1994.72
1010.75	126.97
1010.911	-1204.21
1011.072	-2254.81
1011.233	1085.42
1011.394	-636.92
1011.555	256
1011.716	645.11
1011.877	-1169.39
1012.037	239.61
1012.198	-1263.6
1012.359	487.42
1012.52	-1386.47
1012.68	-440.31
1012.841	-32.77
1013.002	266.24
1013.163	-759.8
1013.323	256
1013.484	-1757.16
1013.644	-1339.37
1013.805	561.14
1013.966	-530.42
1014.126	2471.9
1014.287	-753.65
1014.447	-296.96
1014.608	1273.84
1014.768	-1099.76
1014.929	1087.47
1015.089	-1239.02
1015.249	249.85
1015.41	-73.73
1015.57	954.35
1015.731	-2045.92
1015.891	-704.5
1016.051	391.16
1016.211	-546.81
1016.372	1464.3
1016.532	-794.61
1016.692	-243.71
1016.852	532.47
1017.013	-589.82
1017.173	-120.83
1017.333	-1011.7
1017.493	-751.6
1017.653	-1255.4
1017.813	-1943.52
1017.973	-212.99
1018.133	-1550.31
1018.293	-1761.25
1018.453	-247.8
1018.613	-1841.12
1018.773	1880.04
1018.933	-30.72
1019.093	794.61
1019.253	53.25
1019.413	1124.33
1019.573	-2047.97
1019.733	-309.24
1019.892	1890.28
1020.052	-458.74
1020.212	425.98
1020.372	147.45
1020.531	1531.88
1020.691	-286.72
1020.851	-1259.5
1021.01	172.03
1021.17	233.47
1021.33	-565.24
1021.489	-1648.61
1021.649	-73.73
1021.808	-73.73
1021.968	278.52
1022.127	-2566.1
1022.287	1767.4
1022.446	-555
1022.606	598.01
1022.765	-1386.47
1022.925	2303.96
1023.084	966.64
1023.244	1554.41
1023.403	-557.05
1023.562	-919.54
1023.722	-442.36
1023.881	-706.55
1024.04	-169.98
1024.199	649.21
1024.359	43.01
1024.518	-1935.33
1024.677	-843.76
1024.836	-874.48
1024.995	776.18
1025.154	-1007.6
1025.313	-206.84
1025.473	-1308.65
1025.632	-1255.4
1025.791	782.32
1025.95	-1269.74
1026.109	-847.86
1026.268	149.5
1026.427	1028.08
1026.586	1841.12
1026.744	-16.38
1026.903	5752.74
1027.062	-331.77
1027.221	1071.09
1027.38	221.18
1027.539	976.88
1027.698	4468.67
1027.856	-1417.19
1028.015	708.6
1028.174	458.74
1028.333	348.15
1028.491	3801.03
1028.65	1603.56
1028.808	3508.17
1028.967	847.86
1029.126	589.81
1029.284	-1845.22
1029.443	389.11
1029.601	-632.82
1029.76	-1398.76
1029.918	-1198.06
1030.077	626.68
1030.235	2088.93
1030.394	-716.79
1030.552	1146.86
1030.711	2469.85
1030.869	-618.49
1031.027	-729.08
1031.186	-2322.4
1031.344	-1054.7
1031.502	-323.58
1031.661	1163.25
1031.819	2088.93
1031.977	1036.27
1032.135	-1746.92
1032.293	-919.54
1032.452	-1486.83
1032.61	3479.5
1032.768	-1544.17
1032.926	188.41
1033.084	3233.74
1033.242	-659.45
1033.4	-1413.1
1033.558	765.94
1033.716	-440.31
1033.874	-921.59
1034.032	-96.25
1034.19	-190.46
1034.348	2111.46
1034.506	-1730.53
1034.664	360.44
1034.822	-1572.84
1034.979	2459.61
1035.137	729.08
1035.295	-200.7
