Data from TmLN Sample 2_USBC44471_15-08-21-102.txt Node
Date: Wed Jul 29 15:08:21 MDT 2020
User: Montana Instruments
Spectrometer: USBC4447
Scans to average: 1
Trigger mode: 4
Integration Time (sec): 1.000000E1
Electric dark correction enabled: true
Boxcar width: 0
XAxis mode: Wavelengths
Number of Pixels in Spectrum: 3648
>>>>>Begin Spectral Data<<<<<
344.991	-5201.5
345.205	-5201.5
345.419	-5201.5
345.633	-5189.21
345.847	-5189.21
346.061	-325.29
346.275	872.78
346.489	-1261.21
346.703	-188.07
346.917	-1717.9
347.131	1089.86
347.345	-835.23
347.559	-829.09
347.773	1513.79
347.986	-79.53
348.2	2978.09
348.414	-1218.2
348.628	-970.4
348.842	-945.82
349.056	-1146.52
349.269	405.84
349.483	1313.09
349.697	1392.96
349.911	1466.69
350.125	-865.95
350.338	299.34
350.552	854.34
350.766	-548.51
350.979	-1527.44
351.193	-540.32
351.407	5169.41
351.621	-288.42
351.834	-1435.28
352.048	2304.31
352.262	-528.03
352.475	3293.48
352.689	1157.44
352.902	1519.93
353.116	158.03
353.33	-1472.15
353.543	-1003.16
353.757	610.64
353.971	137.56
354.184	158.03
354.398	-411.3
354.611	665.93
354.825	2785.58
355.038	1114.44
355.252	-206.5
355.465	-405.16
355.679	-1762.96
355.892	856.39
356.106	1155.4
356.319	7299.3
356.533	-466.6
356.746	-249.51
356.96	-788.13
357.173	-1451.67
357.386	1372.48
357.6	-917.15
357.813	-917.15
358.027	-1779.34
358.24	-710.3
358.453	2543.92
358.667	-1263.26
358.88	1061.19
359.094	-1109.66
359.307	244.05
359.52	-470.69
359.733	2136.37
359.947	-2219.66
360.16	1177.92
360.373	1532.22
360.587	-1078.94
360.8	-530.08
361.013	-327.33
361.226	-685.73
361.44	2685.23
361.653	1536.32
361.866	-880.29
362.079	-1910.41
362.292	254.29
362.506	3295.52
362.719	444.75
362.932	2896.17
363.145	168.27
363.358	-851.61
363.571	-1289.88
363.785	-173.74
363.998	1231.17
364.211	1999.16
364.424	-1220.25
364.637	1122.63
364.85	-622.24
365.063	1980.73
365.276	92.5
365.489	-1443.48
365.702	-419.49
365.915	248.15
366.128	-292.52
366.341	1720.64
366.554	3297.57
366.767	-751.26
366.98	53.59
367.193	948.55
367.406	-1226.39
367.619	3572
367.832	1863.99
368.045	223.57
368.258	418.13
368.471	1007.94
368.684	-1986.19
368.896	-1779.34
369.109	190.8
369.322	-1013.4
369.535	-194.22
369.748	-1474.2
369.961	-632.48
370.173	-2637.44
370.386	-2389.64
370.599	2627.89
370.812	-405.16
371.025	-736.93
371.237	82.26
371.45	268.63
371.663	870.73
371.876	-566.95
372.088	4698.38
372.301	-802.46
372.514	-1431.19
372.726	430.41
372.939	-239.27
373.152	-351.91
373.364	909.64
373.577	3348.77
373.79	-538.27
374.002	-1066.65
374.215	-2647.68
374.428	-1853.07
374.64	1419.58
374.853	-1054.36
375.065	-560.8
375.278	3569.95
375.491	115.03
375.703	1370.43
375.916	-1988.24
376.128	-681.63
376.341	-1539.73
376.553	977.22
376.766	-1320.6
376.978	-1541.78
377.191	762.19
377.403	-1642.13
377.616	3109.16
377.828	3883.29
378.04	-1207.96
378.253	-532.13
378.465	426.32
378.678	1055.05
378.89	-1156.76
379.103	-786.08
379.315	295.25
379.527	-1592.98
379.74	-609.95
379.952	-175.78
380.164	-1457.81
380.377	2038.07
380.589	151.89
380.801	39.25
381.014	1638.72
381.226	995.65
381.438	22.87
381.65	-1322.65
381.863	129.36
382.075	-951.96
382.287	-2137.74
382.499	-882.33
382.712	-112.3
382.924	37.2
383.136	-775.84
383.348	-2803.33
383.56	-7.85
383.772	-960.16
383.985	313.68
384.197	1397.06
384.409	-665.25
384.621	387.41
384.833	2.39
385.045	112.98
385.257	-1293.97
385.469	-573.09
385.681	45.4
385.893	47.44
386.105	-1001.12
386.318	-2444.93
386.53	-462.5
386.742	-2823.81
386.954	-2143.88
387.166	2892.07
387.378	201.04
387.589	96.6
387.801	-2809.47
388.013	-1355.41
388.225	-1293.97
388.437	-2033.29
388.649	-1719.95
388.861	2459.95
389.073	1040.71
389.285	-591.52
389.497	678.22
389.709	1403.2
389.92	-1228.44
390.132	-939.68
390.344	-642.72
390.556	-657.06
390.768	366.93
390.98	-1044.12
391.191	1546.56
391.403	633.16
391.615	180.56
391.827	-1113.75
392.038	-738.98
392.25	-224.94
392.462	-2174.6
392.674	-1773.2
392.885	-1367.7
393.097	-2291.34
393.309	-659.1
393.52	1114.44
393.732	-1652.37
393.944	643.4
394.155	438.61
394.367	-1386.13
394.579	467.28
394.79	-1234.58
395.002	-42.67
395.213	-2485.89
395.425	-292.52
395.637	-1158.81
395.848	-2303.62
396.06	295.25
396.271	215.38
396.483	-1085.08
396.694	-380.58
396.906	-442.02
397.117	1392.96
397.329	1411.39
397.54	-769.69
397.752	-1814.16
397.963	-1216.15
398.175	401.74
398.386	979.27
398.598	-753.31
398.809	-2166.41
399.02	883.02
399.232	905.54
399.443	121.17
399.655	-958.11
399.866	-1033.88
400.077	-450.21
400.289	1294.66
400.5	98.64
400.711	624.97
400.923	-1635.99
401.134	-1070.75
401.345	-1949.32
401.556	3387.68
401.768	-1080.99
401.979	-407.2
402.19	895.3
402.401	-554.66
402.613	12.63
402.824	-798.37
403.035	-2332.3
403.246	-1730.19
403.457	262.48
403.669	260.43
403.88	-1281.69
404.091	-2049.68
404.302	-1283.74
404.513	-560.8
404.724	-833.18
404.935	-751.26
405.146	975.17
405.358	-1765.01
405.569	-1584.79
405.78	-1941.13
405.991	-839.33
406.202	-26.28
406.413	-290.47
406.624	-1431.19
406.835	-274.09
407.046	2715.95
407.257	-134.82
407.468	1196.36
407.679	-413.35
407.89	1790.27
408.101	1884.47
408.312	-544.42
408.522	-1906.32
408.733	252.24
408.944	313.68
409.155	-616.1
409.366	950.6
409.577	-1918.61
409.788	-390.82
409.999	94.55
410.209	-769.69
410.42	172.37
410.631	-1738.38
410.842	-69.29
411.053	4927.75
411.264	1116.48
411.474	-1158.81
411.685	-77.48
411.896	-1246.87
412.107	-2135.69
412.317	-1007.26
412.528	1870.14
412.739	-2100.87
412.949	-1255.06
413.16	155.99
413.371	1988.92
413.581	917.83
413.792	-646.82
414.003	3326.24
414.213	1630.52
414.424	-1887.89
414.635	-446.12
414.845	-1126.04
415.056	121.17
415.266	-1601.17
415.477	-2346.63
415.687	844.1
415.898	1079.62
416.109	-1691.28
416.319	332.11
416.53	-2676.35
416.74	86.36
416.951	-1281.69
417.161	-42.67
417.372	184.66
417.582	610.64
417.792	1501.5
418.003	2191.67
418.213	-814.75
418.424	430.41
418.634	-1672.85
418.844	1110.34
419.055	1898.81
419.265	-1246.87
419.476	569.68
419.686	-1025.69
419.896	-65.19
420.107	-1189.53
420.317	-863.9
420.527	-3.75
420.738	-458.4
420.948	971.08
421.158	1280.32
421.368	-642.72
421.579	-155.3
421.789	-1128.09
421.999	-3167.87
422.209	-382.63
422.419	-550.56
422.63	-224.94
422.84	-534.18
423.05	-1144.47
423.26	-1171.1
423.47	-192.17
423.681	-2021
423.891	758.09
424.101	1718.59
424.311	-827.04
424.521	-253.61
424.731	-695.97
424.941	-655.01
425.151	387.41
425.361	-1781.39
425.571	-2504.32
425.781	3971.35
425.991	909.64
426.201	1593.66
426.411	405.84
426.621	-1355.41
426.831	-1891.98
427.041	65.88
427.251	-423.59
427.461	1249.6
427.671	1134.92
427.881	-781.98
428.091	-11.95
428.301	2341.17
428.511	-44.71
428.721	-2956.93
428.93	-474.79
429.14	-1269.4
429.35	278.87
429.56	-1062.55
429.77	-351.91
429.98	-1177.24
430.189	-1005.21
430.399	2654.51
430.609	1581.37
430.819	379.22
431.029	-1427.09
431.238	-1013.4
431.448	-716.45
431.658	-2469.51
431.867	-632.48
432.077	332.11
432.287	-1201.82
432.497	-1093.27
432.706	-110.25
432.916	-456.36
433.125	-2836.1
433.335	-1283.74
433.545	1360.19
433.754	3799.32
433.964	-1273.5
434.174	-997.02
434.383	1999.16
434.593	-1232.54
434.802	938.31
435.012	-1318.55
435.221	399.7
435.431	-450.21
435.64	-1064.6
435.85	-1029.79
436.059	219.47
436.269	725.32
436.478	-1035.93
436.688	-2346.63
436.897	-824.99
437.107	-2154.12
437.316	26789.82
437.525	131.41
437.735	164.18
437.944	-38.57
438.154	2527.53
438.363	100.69
438.572	2664.75
438.782	321.87
438.991	-1048.22
439.2	-339.62
439.41	-970.4
439.619	-1140.38
439.828	303.44
440.038	8.53
440.247	1935.67
440.456	-1578.64
440.665	723.27
440.875	989.51
441.084	475.47
441.293	-1828.49
441.502	-1076.89
441.711	-1132.19
441.92	366.93
442.13	-425.64
442.339	-1119.9
442.548	-503.46
442.757	1698.11
442.966	-2838.14
443.175	-1001.12
443.384	1270.08
443.593	1454.4
443.803	-2080.39
444.012	-294.57
444.221	-511.65
444.43	4382.99
444.639	438.61
444.848	2097.46
445.057	-1242.78
445.266	-1371.8
445.475	-2307.72
445.684	-1220.25
445.893	2150.71
446.102	280.91
446.311	-3012.22
446.52	82.26
446.728	2810.15
446.937	-2543.24
447.146	-3415.67
447.355	366.93
447.564	-390.82
447.773	1384.77
447.982	1159.49
448.191	524.62
448.399	-1132.19
448.608	-763.55
448.817	-525.99
449.026	1009.99
449.235	-1457.81
449.443	1042.76
449.652	-702.11
449.861	-962.2
450.07	176.47
450.278	1833.27
450.487	-3061.37
450.696	35.16
450.904	-1089.18
451.113	-779.93
451.322	641.36
451.53	-790.17
451.739	2650.41
451.948	-1119.9
452.156	123.22
452.365	4045.08
452.574	901.45
452.782	510.29
452.991	-585.38
453.199	637.26
453.408	299.34
453.616	-1330.84
453.825	1104.2
454.033	1360.19
454.242	3199.27
454.45	3393.83
454.659	541.01
454.867	14610.55
455.076	-1136.28
455.284	-939.68
455.493	-1676.95
455.701	-1146.52
455.91	3113.25
456.118	-954.01
456.326	-2070.16
456.535	2472.24
456.743	1155.4
456.951	-2201.23
457.16	1044.81
457.368	647.5
457.576	-1597.07
457.785	2683.18
457.993	-177.83
458.201	-1210.01
458.41	723.27
458.618	-908.96
458.826	-106.15
459.034	-2991.74
459.243	-1343.13
459.451	143.7
459.659	57.68
459.867	-712.35
460.075	-738.98
460.284	-138.92
460.492	-2033.29
460.7	-286.37
460.908	-759.46
461.116	-2514.56
461.324	-1230.49
461.532	-2367.11
461.741	-1810.06
461.949	-749.22
462.157	2068.79
462.365	-11.95
462.573	-59.05
462.781	287.06
462.989	-794.27
463.197	-1486.48
463.405	-2188.94
463.613	35.16
463.821	-2403.97
464.029	-44.71
464.237	-1158.81
464.445	-683.68
464.653	758.09
464.861	-339.62
465.069	1366.34
465.276	4682
465.484	-749.22
465.692	-681.63
465.9	-992.92
466.108	-542.37
466.316	876.87
466.524	-763.55
466.731	-388.77
466.939	1827.13
467.147	-130.73
467.355	-165.54
467.563	1515.84
467.77	817.48
467.978	-2422.41
468.186	391.5
468.393	1962.3
468.601	-290.47
468.809	-1793.68
469.017	-808.61
469.224	-1775.25
469.432	926.02
469.64	-1281.69
469.847	-1894.03
470.055	598.35
470.263	-1078.94
470.47	-1068.7
470.678	1372.48
470.885	-77.48
471.093	2464.05
471.3	784.71
471.508	-1484.44
471.716	-478.88
471.923	205.14
472.131	268.63
472.338	-1320.6
472.546	-790.17
472.753	2904.36
472.961	-1355.41
473.168	-126.63
473.375	-460.45
473.583	1214.79
473.79	-163.5
473.998	237.91
474.205	332.11
474.412	2001.21
474.62	-872.09
474.827	-1339.03
475.035	1433.92
475.242	-771.74
475.449	-1486.48
475.657	3950.87
475.864	3141.93
476.071	121.17
476.278	-1085.08
476.486	-716.45
476.693	323.92
476.9	381.26
477.107	268.63
477.315	-984.73
477.522	225.62
477.729	1526.08
477.936	-655.01
478.143	-1418.9
478.351	1335.62
478.558	-1072.79
478.765	-548.51
478.972	-323.24
479.179	436.56
479.386	622.92
479.593	936.26
479.8	794.95
480.007	-1572.5
480.215	-102.06
480.422	1046.85
480.629	-2154.12
480.836	1089.86
481.043	2976.04
481.25	-763.55
481.457	-1472.15
481.664	-681.63
481.871	725.32
482.078	-1406.61
482.284	-1312.41
482.491	2044.21
482.698	1626.43
482.905	-1003.16
483.112	-2111.11
483.319	147.8
483.526	205.14
483.733	2179.38
483.94	-2539.14
484.146	-1613.46
484.353	182.61
484.56	-521.89
484.767	-2971.26
484.974	2048.31
485.18	1581.37
485.387	-568.99
485.594	-1136.28
485.801	1802.55
486.007	364.88
486.214	-849.57
486.421	-1832.59
486.627	-116.39
486.834	880.97
487.041	616.78
487.247	-1343.13
487.454	-1293.97
487.661	321.87
487.867	549.2
488.074	-1644.18
488.281	1206.59
488.487	-255.65
488.694	-882.33
488.9	-448.16
489.107	-1035.93
489.313	-751.26
489.52	-511.65
489.726	-1658.51
489.933	2844.97
490.139	2908.46
490.346	-405.16
490.552	313.68
490.759	-333.48
490.965	127.32
491.172	16146.53
491.378	-384.68
491.584	22.87
491.791	1751.35
491.997	-183.98
492.204	-476.84
492.41	3168.55
492.616	-1722
492.823	-1226.39
493.029	-1062.55
493.235	2287.92
493.442	-93.87
493.648	-761.5
493.854	-548.51
494.06	4534.54
494.267	760.14
494.473	-937.63
494.679	-1435.28
494.885	317.78
495.091	3131.69
495.298	868.68
495.504	-2354.82
495.71	-370.34
495.916	-1783.44
496.122	2591.02
496.328	672.08
496.535	645.45
496.741	-405.16
496.947	633.16
497.153	-263.85
497.359	463.18
497.565	483.66
497.771	1720.64
497.977	-138.92
498.183	-667.3
498.389	762.19
498.595	-1592.98
498.801	526.67
499.007	883.02
499.213	-308.9
499.419	-507.55
499.625	-20.14
499.831	3166.5
500.037	-468.64
500.243	-1400.47
500.448	-485.03
500.654	993.61
500.86	2074.93
501.066	-485.03
501.272	2236.72
501.478	-1861.26
501.684	-495.27
501.889	-1676.95
502.095	-1410.71
502.301	-347.81
502.507	524.62
502.712	-435.88
502.918	-1226.39
503.124	-1031.83
503.33	981.32
503.535	-810.65
503.741	41.3
503.947	-294.57
504.152	-249.51
504.358	-2193.03
504.564	-585.38
504.769	510.29
504.975	4337.94
505.181	-71.34
505.386	-1703.57
505.592	-677.54
505.797	653.64
506.003	-2569.86
506.208	1909.05
506.414	-515.75
506.619	117.08
506.825	602.44
507.03	-1834.64
507.236	-1019.55
507.441	368.98
507.647	-722.59
507.852	119.12
508.058	1104.2
508.263	1235.27
508.469	-575.14
508.674	-2109.07
508.879	-556.71
509.085	-42.67
509.29	-1664.66
509.495	-1226.39
509.701	-810.65
509.906	981.32
510.111	-464.55
510.317	917.83
510.522	440.65
510.727	2083.13
510.933	-632.48
511.138	237.91
511.343	-687.78
511.548	606.54
511.754	-1531.54
511.959	2230.58
512.164	-81.58
512.369	3449.12
512.574	3346.72
512.779	-1431.19
512.985	-394.92
513.19	977.22
513.395	149.84
513.6	-970.4
513.805	-143.02
514.01	2021.69
514.215	-247.46
514.42	2724.14
514.625	-499.36
514.83	2685.23
515.035	-9.9
515.24	117.08
515.445	3072.29
515.65	2011.45
515.855	242
516.06	-485.03
516.265	674.12
516.47	1245.51
516.675	270.67
516.88	-2061.96
517.085	188.75
517.29	-435.88
517.495	393.55
517.7	1640.76
517.904	-122.54
518.109	670.03
518.314	-263.85
518.519	510.29
518.724	696.65
518.928	698.7
519.133	-454.31
519.338	285.01
519.543	373.07
519.747	1030.47
519.952	2939.18
520.157	6127.86
520.362	1030.47
520.566	2879.79
520.771	-1820.3
520.976	1143.11
521.18	3758.36
521.385	-966.3
521.59	-790.17
521.794	602.44
521.999	2257.2
522.203	-855.71
522.408	-405.16
522.612	-863.9
522.817	835.91
523.022	2304.31
523.226	100.69
523.431	-677.54
523.635	219.47
523.84	2175.28
524.044	-630.43
524.249	1857.85
524.453	2967.85
524.657	166.23
524.862	6033.66
525.066	-853.66
525.271	-36.52
525.475	1388.86
525.679	-81.58
525.884	-1697.42
526.088	1491.26
526.292	2756.91
526.497	201.04
526.701	-767.65
526.905	-310.95
527.11	317.78
527.314	-192.17
527.518	3459.36
527.722	-638.62
527.927	1202.5
528.131	-1851.02
528.335	5581.06
528.539	1710.4
528.744	2617.65
528.948	-1623.7
529.152	-1072.79
529.356	2558.25
529.56	594.25
529.764	260.43
529.968	170.32
530.173	7747.81
530.377	6334.71
530.581	-1605.27
530.785	1698.11
530.989	-292.52
531.193	483.66
531.397	-1123.99
531.601	323.92
531.805	1788.22
532.009	1769.79
532.213	49.49
532.417	723.27
532.621	2068.79
532.825	3645.73
533.029	-1.71
533.233	840.01
533.436	864.58
533.64	305.49
533.844	1804.6
534.048	-419.49
534.252	1442.11
534.456	3569.95
534.66	2206
534.863	90.45
535.067	418.13
535.271	2427.18
535.475	-362.15
535.679	2240.82
535.882	3178.79
536.086	2079.03
536.29	2177.33
536.493	725.32
536.697	1616.19
536.901	1294.66
537.104	2191.67
537.308	1083.72
537.512	1503.55
537.715	3887.39
537.919	2132.28
538.123	1884.47
538.326	1603.9
538.53	2945.32
538.733	3733.79
538.937	2388.27
539.141	2060.6
539.344	3262.76
539.548	2298.16
539.751	5114.12
539.955	5761.28
540.158	7362.79
540.362	5132.55
540.565	3180.84
540.768	4481.3
540.972	11108.52
541.175	9046.22
541.379	6895.85
541.582	6494.45
541.785	8065.24
541.989	9863.36
542.192	5390.6
542.396	6514.93
542.599	8777.94
542.802	9097.42
543.005	7561.44
543.209	6602.99
543.412	8337.62
543.615	7960.8
543.819	8372.44
544.022	6715.63
544.225	8192.22
544.428	8057.05
544.631	10571.96
544.835	7438.56
545.038	6359.28
545.241	6732.01
545.444	9767.1
545.647	8202.46
545.85	7051.5
546.054	5802.24
546.257	3985.69
546.46	6854.89
546.663	5980.41
546.866	6770.93
547.069	7305.45
547.272	5482.75
547.475	6023.42
547.678	5398.79
547.881	4260.12
548.084	4655.37
548.287	4940.04
548.49	2560.3
548.693	4147.48
548.896	1935.67
549.099	4632.85
549.302	2570.54
549.505	2318.64
549.707	1978.68
549.91	3991.83
550.113	2105.65
550.316	1653.05
550.519	4256.02
550.722	4303.12
550.924	2066.74
551.127	3207.46
551.33	2337.07
551.533	1679.68
551.736	1298.75
551.938	1304.9
552.141	2924.84
552.344	784.71
552.546	2998.57
552.749	1767.74
552.952	1859.9
553.154	1769.79
553.357	1913.14
553.56	1542.46
553.762	7162.09
553.965	5613.82
554.168	1872.18
554.37	3842.33
554.573	2851.11
554.775	4098.33
554.978	3279.14
555.18	430.41
555.383	1222.98
555.585	5126.41
555.788	2611.5
555.99	1331.52
556.193	1960.25
556.395	3279.14
556.598	917.83
556.8	1603.9
557.003	2089.27
557.205	5779.71
557.407	1526.08
557.61	2054.45
557.812	2445.62
558.015	4313.36
558.217	1747.26
558.419	2332.98
558.622	3825.95
558.824	2339.12
559.026	936.26
559.228	1843.51
559.431	3442.98
559.633	3109.16
559.835	1743.16
560.037	3203.36
560.24	4966.67
560.442	4112.66
560.644	1511.74
560.846	3469.6
561.048	3707.16
561.25	4561.17
561.453	2971.94
561.655	2009.4
561.857	2689.32
562.059	2163
562.261	4630.8
562.463	2777.39
562.665	2740.52
562.867	3799.32
563.069	3668.25
563.271	4665.61
563.473	3643.68
563.675	3283.24
563.877	3473.7
564.079	2142.52
564.281	5349.64
564.483	3928.35
564.685	3068.2
564.887	2570.54
565.089	4399.38
565.291	4514.06
565.493	1863.99
565.694	5443.84
565.896	1923.38
566.098	4137.24
566.3	5118.22
566.502	2777.39
566.704	5896.44
566.905	805.19
567.107	1485.12
567.309	1286.47
567.511	4174.1
567.712	1415.49
567.914	2625.84
568.116	618.83
568.317	4866.32
568.519	3182.88
568.721	242
568.922	352.59
569.124	2785.58
569.326	5142.79
569.527	2613.55
569.729	2498.86
569.93	6732.01
570.132	2054.45
570.334	4065.56
570.535	1061.19
570.737	2036.02
570.938	6060.28
571.14	2173.24
571.341	3543.33
571.543	7022.83
571.744	2900.27
571.946	4329.75
572.147	1661.24
572.348	5509.38
572.55	4360.47
572.751	4923.66
572.953	2281.78
573.154	4323.6
573.355	6598.9
573.557	9285.83
573.758	3629.34
573.959	3473.7
574.161	5028.1
574.362	5501.19
574.563	7246.05
574.765	6035.71
574.966	6150.39
575.167	2482.48
575.368	5593.34
575.569	3860.76
575.771	6009.08
575.972	3070.25
576.173	4264.21
576.374	5519.62
576.575	4843.79
576.776	1464.64
576.978	2521.39
577.179	3500.32
577.38	4331.8
577.581	2621.74
577.782	3598.62
577.983	5179.65
578.184	5814.52
578.385	3459.36
578.586	4127
578.787	2699.56
578.988	4059.42
579.189	1935.67
579.39	2687.28
579.591	3723.55
579.792	2736.43
579.993	4747.53
580.194	4714.77
580.395	5976.31
580.596	3893.53
580.796	4964.62
580.997	2779.43
581.198	3846.43
581.399	5699.84
581.6	6246.65
581.801	2976.04
582.001	6848.75
582.202	2535.73
582.403	1546.56
582.604	7334.12
582.804	3778.84
583.005	4159.77
583.206	954.69
583.407	5329.16
583.607	3256.61
583.808	2851.11
584.009	4948.23
584.209	4536.59
584.41	1618.24
584.61	3385.63
584.811	3240.23
585.012	2572.59
585.212	1806.65
585.413	3318.05
585.613	3311.91
585.814	2007.35
586.014	5183.75
586.215	2588.97
586.415	3078.44
586.616	2064.69
586.816	2584.88
587.017	4751.63
587.217	1847.61
587.418	6004.99
587.618	2631.98
587.819	2730.28
588.019	1196.36
588.219	528.72
588.42	2976.04
588.62	991.56
588.82	1050.95
589.021	1446.21
589.221	3107.11
589.421	1651
589.622	3868.95
589.822	1116.48
590.022	5443.84
590.222	3578.14
590.423	1872.18
590.623	1014.09
590.823	2916.65
591.023	2711.85
591.223	770.38
591.423	5609.73
591.624	2584.88
591.824	2343.22
592.024	1265.99
592.224	2148.66
592.424	5140.74
592.624	2339.12
592.824	2793.77
593.024	2136.37
593.224	5050.63
593.424	4426
593.624	2545.97
593.824	2322.74
594.024	2842.92
594.224	1065.29
594.424	2443.57
594.624	543.05
594.824	1882.42
595.024	1280.32
595.224	2537.77
595.424	833.86
595.624	659.79
595.824	1087.81
596.023	3807.52
596.223	3795.23
596.423	1491.26
596.623	2808.11
596.823	-226.98
597.023	-554.66
597.222	6320.37
597.422	874.82
597.622	-327.33
597.822	905.54
598.021	2294.07
598.221	786.76
598.421	-396.96
598.62	1544.51
598.82	751.95
599.02	4677.9
599.219	4118.81
599.419	2406.7
599.618	655.69
599.818	2656.56
600.018	-460.45
600.217	899.4
600.417	4004.12
600.616	1388.86
600.816	1995.06
601.015	1954.1
601.215	1014.09
601.414	659.79
601.614	885.06
601.813	-456.36
602.013	2083.13
602.212	1540.41
602.412	293.2
602.611	2556.21
602.81	1984.82
603.01	2965.8
603.209	1392.96
603.408	-982.68
603.608	2300.21
603.807	1069.38
604.006	5970.17
604.206	57.68
604.405	1429.82
604.604	1857.85
604.803	1399.1
605.003	442.7
605.202	47.44
605.401	973.13
605.6	2339.12
605.8	409.94
605.999	520.53
606.198	1904.95
606.397	2060.6
606.596	850.25
606.795	2928.94
606.994	3555.62
607.193	964.93
607.393	3633.44
607.592	3791.13
607.791	1542.46
607.99	3950.87
608.189	3842.33
608.388	4774.16
608.587	3954.97
608.786	2261.3
608.985	545.1
609.184	2226.48
609.382	3502.37
609.581	2697.52
609.78	4628.75
609.979	4325.65
610.178	2871.59
610.377	2603.31
610.576	704.84
610.775	3184.93
610.973	3252.52
611.172	3825.95
611.371	2939.18
611.57	2197.81
611.769	4976.91
611.967	1646.91
612.166	4536.59
612.365	2738.48
612.564	2994.47
612.762	3344.67
612.961	3465.5
613.16	2072.89
613.358	2883.88
613.557	-145.06
613.756	2943.27
613.954	4348.18
614.153	1241.41
614.351	1358.14
614.55	518.48
614.749	3660.06
614.947	1954.1
615.146	864.58
615.344	2525.49
615.543	86.36
615.741	2253.11
615.94	2781.48
616.138	743.75
616.337	2896.17
616.535	1165.64
616.733	-9.9
616.932	1407.3
617.13	3707.16
617.329	5093.64
617.527	-865.95
617.725	-1541.78
617.924	-851.61
618.122	430.41
618.32	-794.27
618.519	-1351.32
618.717	2517.29
618.915	2244.92
619.114	1124.68
619.312	162.13
619.51	459.09
619.708	2238.77
619.906	-452.26
620.105	-435.88
620.303	-198.31
620.501	3682.59
620.699	-1554.07
620.897	874.82
621.095	1751.35
621.293	-962.2
621.492	1857.85
621.69	131.41
621.888	1147.2
622.086	3219.75
622.284	1173.83
622.482	416.08
622.68	794.95
622.878	364.88
623.076	-3.75
623.274	135.51
623.472	504.14
623.67	1272.13
623.868	-2188.94
624.065	921.93
624.263	551.24
624.461	979.27
624.659	-550.56
624.857	3373.35
625.055	2480.43
625.253	-300.71
625.45	-179.88
625.648	127.32
625.846	325.97
626.044	229.71
626.242	422.22
626.439	2165.04
626.637	776.52
626.835	-188.07
627.032	1886.52
627.23	-1402.52
627.428	3408.16
627.626	1392.96
627.823	545.1
628.021	2603.31
628.218	2036.02
628.416	1425.73
628.614	-1267.35
628.811	-1539.73
629.009	-548.51
629.206	-265.89
629.404	-849.57
629.601	143.7
629.799	-1707.66
629.996	3158.31
630.194	1102.15
630.391	1081.67
630.589	-519.84
630.786	1968.44
630.984	536.91
631.181	-2053.77
631.378	-577.19
631.576	1898.81
631.773	-2064.01
631.97	-1326.74
632.168	-1517.2
632.365	254.29
632.562	495.95
632.76	-999.07
632.957	620.88
633.154	198.99
633.352	489.81
633.549	-540.32
633.746	2197.81
633.943	821.58
634.14	-468.64
634.338	2306.35
634.535	-339.62
634.732	-38.57
634.929	2842.92
635.126	797
635.323	82.26
635.52	2197.81
635.717	610.64
635.915	-437.92
636.112	26.96
636.309	-1574.55
636.506	-585.38
636.703	-2363.01
636.9	-313
637.097	5173.51
637.294	285.01
637.491	-843.42
637.688	2152.76
637.884	-962.2
638.081	-612
638.278	-153.26
638.475	-284.33
638.672	-485.03
638.869	-745.12
639.066	5503.23
639.263	885.06
639.459	581.96
639.656	-2190.99
639.853	-1588.88
640.05	14700.66
640.246	2079.03
640.443	-163.5
640.64	-2283.14
640.837	377.17
641.033	-1793.68
641.23	-16.04
641.427	-153.26
641.623	702.79
641.82	-525.99
642.017	-1119.9
642.213	-413.35
642.41	-485.03
642.606	1042.76
642.803	1155.4
643	485.71
643.196	-1222.3
643.393	2201.91
643.589	295.25
643.786	-1064.6
643.982	4227.35
644.179	1366.34
644.375	-833.18
644.571	-552.61
644.768	-1322.65
644.964	-132.78
645.161	-331.43
645.357	2507.06
645.553	508.24
645.75	2021.69
645.946	110.93
646.143	-108.2
646.339	479.57
646.535	479.57
646.731	1601.85
646.928	-165.54
647.124	-1625.75
647.32	2357.55
647.516	1876.28
647.713	-1134.23
647.909	-89.77
648.105	-564.9
648.301	-2621.06
648.497	334.16
648.693	-521.89
648.89	-394.92
649.086	-143.02
649.282	-929.44
649.478	-421.54
649.674	137.56
649.87	1931.58
650.066	1306.95
650.262	-1064.6
650.458	1802.55
650.654	-1324.69
650.85	201.04
651.046	-421.54
651.242	-16.04
651.438	287.06
651.634	-1582.74
651.83	-824.99
652.026	524.62
652.222	-339.62
652.417	-374.44
652.613	1145.16
652.809	-1441.43
653.005	-919.2
653.201	2273.59
653.397	-1171.1
653.592	-204.46
653.788	-1085.08
653.984	1503.55
654.18	4677.9
654.375	-788.13
654.571	-13.99
654.767	-81.58
654.962	-1009.31
655.158	-2336.39
655.354	-605.86
655.549	1128.77
655.745	1067.33
655.941	3322.15
656.136	-974.49
656.332	-1466
656.527	-251.56
656.723	1501.5
656.918	-1922.7
657.114	-812.7
657.309	-149.16
657.505	997.7
657.7	1413.44
657.896	-1164.95
658.091	-1101.47
658.287	-771.74
658.482	-2180.75
658.678	-1037.98
658.873	276.82
659.068	3275.04
659.264	-581.28
659.459	35270.46
659.654	594.25
659.85	2337.07
660.045	-1506.96
660.24	1861.94
660.436	5134.6
660.631	-282.28
660.826	1954.1
661.021	405.84
661.217	2380.08
661.412	-788.13
661.607	-2029.2
661.802	-579.23
661.997	-349.86
662.192	498
662.388	-2498.18
662.583	-659.1
662.778	418.13
662.973	-1683.09
663.168	-2543.24
663.363	-994.97
663.558	3815.71
663.753	1212.74
663.948	-2014.86
664.143	-1635.99
664.338	282.96
664.533	833.86
664.728	-601.76
664.923	-1320.6
665.118	176.47
665.313	-843.42
665.508	1362.24
665.703	1157.44
665.897	1048.9
666.092	475.47
666.287	231.76
666.482	-573.09
666.677	2007.35
666.872	1663.29
667.066	-734.88
667.261	-1111.71
667.456	115.03
667.651	1358.14
667.845	1634.62
668.04	477.52
668.235	-1437.33
668.429	1239.36
668.624	119.12
668.819	-681.63
669.013	-1611.41
669.208	774.47
669.402	-1447.57
669.597	59.73
669.792	-753.31
669.986	2765.1
670.181	-2152.07
670.375	186.71
670.57	-1568.4
670.764	-1005.21
670.959	-497.32
671.153	-108.2
671.348	-276.13
671.542	2453.81
671.737	-1949.32
671.931	-2596.48
672.125	397.65
672.32	1024.33
672.514	1329.47
672.709	-1521.3
672.903	-16.04
673.097	-698.02
673.291	-1345.17
673.486	1446.21
673.68	151.89
673.874	-929.44
674.069	-1244.82
674.263	661.84
674.457	1474.88
674.651	807.24
674.845	-628.39
675.04	3576.09
675.234	-1199.77
675.428	-220.84
675.622	-1353.37
675.816	-1666.71
676.01	-566.95
676.204	-143.02
676.398	162.13
676.592	-714.4
676.787	-798.37
676.981	12.63
677.175	-7.85
677.369	-3165.82
677.563	-100.01
677.757	-153.26
677.95	-1367.7
678.144	-2762.37
678.338	-900.76
678.532	667.98
678.726	-2459.27
678.92	2998.57
679.114	49.49
679.308	129.36
679.502	-3552.88
679.695	-1998.48
679.889	-380.58
680.083	-2426.5
680.277	-2334.34
680.471	-345.77
680.664	-1543.83
680.858	379.22
681.052	-132.78
681.245	-1171.1
681.439	676.17
681.633	-925.34
681.826	-327.33
682.02	-1031.83
682.214	829.77
682.407	-1341.08
682.601	-636.58
682.795	-544.42
682.988	-485.03
683.182	-1126.04
683.375	-464.55
683.569	-798.37
683.762	645.45
683.956	2048.31
684.149	1632.57
684.343	1696.06
684.536	-1138.33
684.73	72.02
684.923	-2330.25
685.116	-1775.25
685.31	2048.31
685.503	962.89
685.696	-319.14
685.89	944.45
686.083	-1631.89
686.276	-765.6
686.47	94.55
686.663	-503.46
686.856	-329.38
687.05	1444.16
687.243	-446.12
687.436	1231.17
687.629	1618.24
687.822	500.05
688.016	-956.06
688.209	-1142.43
688.402	541.01
688.595	-138.92
688.788	-1926.8
688.981	-1781.39
689.174	2810.15
689.367	248.15
689.561	-761.5
689.754	-2420.36
689.947	-448.16
690.14	100.69
690.333	-3059.32
690.526	-634.53
690.719	1497.41
690.912	1841.47
691.104	219.47
691.297	-257.7
691.49	151.89
691.683	-927.39
691.876	-2801.28
692.069	2607.41
692.262	-67.24
692.455	385.36
692.647	-442.02
692.84	-1490.58
693.033	561.48
693.226	409.94
693.419	-1042.07
693.611	-745.12
693.804	219.47
693.997	600.4
694.189	-374.44
694.382	-1371.8
694.575	2969.9
694.767	-183.98
694.96	-1400.47
695.153	-401.06
695.345	170.32
695.538	1564.99
695.731	375.12
695.923	-614.05
696.116	303.44
696.308	1603.9
696.501	-20.14
696.693	2044.21
696.886	-921.24
697.078	-1914.51
697.271	401.74
697.463	715.08
697.655	-100.01
697.848	141.65
698.04	-1035.93
698.233	-2174.6
698.425	-523.94
698.617	1268.03
698.81	-1402.52
699.002	-898.72
699.194	1841.47
699.387	960.84
699.579	-1183.38
699.771	-1826.45
699.963	-2637.44
700.156	-1732.24
700.348	1081.67
700.54	229.71
700.732	-997.02
700.924	-618.15
701.117	-525.99
701.309	-1138.33
701.501	-2100.87
701.693	4090.13
701.885	-919.2
702.077	1063.24
702.269	479.57
702.461	1876.28
702.653	237.91
702.845	-616.1
703.037	313.68
703.229	2048.31
703.421	-1019.55
703.613	-1189.53
703.805	3242.28
703.997	481.61
704.189	1177.92
704.381	-779.93
704.573	3723.55
704.765	-724.64
704.957	1528.13
705.148	-83.63
705.34	-853.66
705.532	2.39
705.724	-1271.45
705.916	-1859.21
706.107	1644.86
706.299	252.24
706.491	1986.87
706.682	1483.07
706.874	-630.43
707.066	-411.3
707.258	-1470.1
707.449	-513.7
707.641	5396.74
707.832	-16.04
708.024	-743.07
708.216	-204.46
708.407	905.54
708.599	-405.16
708.79	1794.36
708.982	-1511.06
709.173	-368.29
709.365	-1007.26
709.556	-372.39
709.748	-405.16
709.939	303.44
710.131	606.54
710.322	-2203.27
710.514	2572.59
710.705	-630.43
710.896	534.86
711.088	444.75
711.279	596.3
711.47	1722.68
711.662	1059.14
711.853	-1248.92
712.044	-2420.36
712.236	303.44
712.427	-3.75
712.618	-2422.41
712.809	-1201.82
713	-489.12
713.192	1429.82
713.383	-626.34
713.574	227.67
713.765	26.96
713.956	-812.7
714.147	1925.43
714.338	-1730.19
714.53	1610.04
714.721	2378.03
714.912	-1240.73
715.103	-2021
715.294	772.43
715.485	1513.79
715.676	-2227.85
715.867	-2635.39
716.058	-552.61
716.249	1548.61
716.44	-368.29
716.63	-1511.06
716.821	-368.29
717.012	1349.95
717.203	-1228.44
717.394	-935.58
717.585	-2145.93
717.776	-790.17
717.966	-1152.67
718.157	-1560.21
718.348	487.76
718.539	31.06
718.73	993.61
718.92	2277.68
719.111	-827.04
719.302	422.22
719.492	-986.78
719.683	608.59
719.874	-1162.9
720.064	3946.78
720.255	-2080.39
720.446	-288.42
720.636	1579.33
720.827	1218.88
721.017	555.34
721.208	-534.18
721.398	-810.65
721.589	940.36
721.779	266.58
721.97	-3225.21
722.16	-1455.76
722.351	-2039.44
722.541	-978.59
722.732	1218.88
722.922	1026.37
723.112	1698.11
723.303	-1783.44
723.493	-1293.97
723.683	1145.16
723.874	2285.87
724.064	387.41
724.254	2113.85
724.445	-935.58
724.635	2283.83
724.825	-2715.27
725.015	-681.63
725.206	-548.51
725.396	1399.1
725.586	-1384.09
725.776	710.99
725.966	3537.18
726.157	1120.58
726.347	1921.34
726.537	-181.93
726.727	1931.58
726.917	-1236.63
727.107	-911
727.297	-2696.83
727.487	2005.3
727.677	-894.62
727.867	254.29
728.057	-304.81
728.247	346.45
728.437	831.82
728.627	-964.25
728.817	-698.02
729.007	334.16
729.197	745.8
729.387	-693.92
729.576	-405.16
729.766	1765.69
729.956	-353.96
730.146	-888.48
730.336	-1840.78
730.525	-265.89
730.715	-1091.23
730.905	35.16
731.095	-827.04
731.284	758.09
731.474	1845.56
731.664	-880.29
731.853	-2451.08
732.043	-1273.5
732.233	-1697.42
732.422	1358.14
732.612	-1386.13
732.802	471.37
732.991	209.23
733.181	-2936.45
733.37	-1527.44
733.56	-757.41
733.749	813.38
733.939	-2133.64
734.128	866.63
734.318	2490.67
734.507	-577.19
734.697	-2387.59
734.886	1470.78
735.076	-1576.59
735.265	1739.07
735.454	575.82
735.644	-1668.75
735.833	-1201.82
736.022	-245.41
736.212	-1019.55
736.401	-687.78
736.59	1208.64
736.779	-515.75
736.969	-2018.96
737.158	233.81
737.347	-1375.89
737.536	-161.45
737.726	-1394.33
737.915	1104.2
738.104	774.47
738.293	-794.27
738.482	102.74
738.671	-1361.56
738.86	-2389.64
739.049	1016.13
739.238	-1310.36
739.427	-843.42
739.616	-1859.21
739.806	-1742.48
739.995	-2895.49
740.183	-1916.56
740.372	20.82
740.561	-415.4
740.75	-3487.35
740.939	29.01
741.128	317.78
741.317	1071.43
741.506	-1035.93
741.695	196.95
741.884	842.06
742.072	1507.65
742.261	-173.74
742.45	-429.73
742.639	643.4
742.828	395.6
743.016	-710.3
743.205	-1760.91
743.394	-1312.41
743.582	1534.27
743.771	-13.99
743.96	706.89
744.148	147.8
744.337	137.56
744.526	469.33
744.714	-868
744.903	3852.57
745.091	4.44
745.28	2019.64
745.468	1046.85
745.657	606.54
745.845	545.1
746.034	-462.5
746.222	194.9
746.411	616.78
746.599	1186.12
746.788	952.65
746.976	-581.28
747.165	221.52
747.353	741.71
747.541	4493.58
747.73	-1584.79
747.918	2212.15
748.106	1663.29
748.295	2353.46
748.483	1491.26
748.671	1079.62
748.859	948.55
749.048	2593.07
749.236	764.23
749.424	262.48
749.612	2623.79
749.8	766.28
749.989	958.79
750.177	1732.92
750.365	2249.01
750.553	2085.17
750.741	-693.92
750.929	5308.68
751.117	913.74
751.305	1956.15
751.493	696.65
751.681	-106.15
751.869	1392.96
752.057	2464.05
752.245	903.5
752.433	3019.05
752.621	1667.39
752.809	3154.21
752.997	2967.85
753.185	2328.88
753.373	1702.2
753.56	1222.98
753.748	2652.46
753.936	1939.77
754.124	2519.34
754.312	1159.49
754.499	4131.09
754.687	2726.19
754.875	3236.13
755.063	1388.86
755.25	3346.72
755.438	4233.49
755.626	3168.55
755.813	751.95
756.001	3262.76
756.189	1130.82
756.376	1632.57
756.564	2238.77
756.751	4583.7
756.939	883.02
757.127	4643.09
757.314	2040.12
757.502	684.36
757.689	4323.6
757.877	3582.24
758.064	3406.11
758.251	1282.37
758.439	3506.46
758.626	4438.29
758.814	1608
759.001	4237.59
759.188	4124.95
759.376	237.91
759.563	3510.56
759.75	3746.08
759.938	1771.83
760.125	1859.9
760.312	2496.82
760.5	2142.52
760.687	3504.42
760.874	1405.25
761.061	3526.94
761.248	88.4
761.436	6222.07
761.623	2052.41
761.81	2758.96
761.997	3500.32
762.184	1845.56
762.371	1474.88
762.558	2263.35
762.745	4061.46
762.932	2490.67
763.119	2943.27
763.306	2441.52
763.493	2584.88
763.68	3166.5
763.867	4192.53
764.054	1083.72
764.241	1868.09
764.428	4149.53
764.615	2408.75
764.802	2502.96
764.989	1399.1
765.176	2558.25
765.362	3373.35
765.549	1823.03
765.736	10109.12
765.923	4182.29
766.11	4151.57
766.296	2242.87
766.483	33.11
766.67	2554.16
766.857	3563.81
767.043	1212.74
767.23	2881.83
767.417	4292.88
767.603	3328.29
767.79	1980.73
767.976	4946.19
768.163	4475.15
768.35	3299.62
768.536	2003.25
768.723	2144.56
768.909	4186.39
769.096	4978.95
769.282	2304.31
769.469	1890.62
769.655	5228.81
769.842	3006.76
770.028	872.78
770.214	2511.15
770.401	2666.8
770.587	1702.2
770.774	-431.78
770.96	-487.08
771.146	2654.51
771.333	3113.25
771.519	1702.2
771.705	2670.89
771.891	1253.7
772.078	7039.21
772.264	3447.07
772.45	1915.19
772.636	2560.3
772.822	1771.83
773.009	5603.58
773.195	3080.49
773.381	3258.66
773.567	3578.14
773.753	1505.6
773.939	530.77
774.125	504.14
774.311	2488.62
774.497	631.12
774.683	1569.09
774.869	3893.53
775.055	5466.37
775.241	1229.12
775.427	2709.8
775.613	1261.89
775.799	4356.37
775.985	1044.81
776.171	2433.33
776.357	2634.03
776.543	2337.07
776.729	1499.45
776.914	2341.17
777.1	3674.4
777.286	6146.3
777.472	1997.11
777.657	1669.44
777.843	4958.47
778.029	4806.92
778.215	2756.91
778.4	1966.39
778.586	5153.03
778.772	3844.38
778.957	3262.76
779.143	1005.89
779.329	2263.35
779.514	1192.26
779.7	2259.25
779.885	256.34
780.071	2783.53
780.256	3066.15
780.442	2537.77
780.627	225.62
780.813	3375.39
780.998	4188.44
781.184	3348.77
781.369	919.88
781.555	3537.18
781.74	2285.87
781.925	4049.18
782.111	1397.06
782.296	2189.62
782.481	2971.94
782.667	2117.94
782.852	3692.83
783.037	2023.73
783.223	1790.27
783.408	2066.74
783.593	3508.51
783.778	1493.31
783.963	3074.34
784.149	3410.21
784.334	2142.52
784.519	2433.33
784.704	999.75
784.889	2658.6
785.074	1231.17
785.259	2199.86
785.444	4735.25
785.629	946.5
785.814	520.53
785.999	1997.11
786.184	5193.99
786.369	1691.96
786.554	190.8
786.739	3758.36
786.924	3086.63
787.109	2677.04
787.294	4053.27
787.479	3600.67
787.664	2580.78
787.849	3737.88
788.034	3619.1
788.218	3338.53
788.403	2767.15
788.588	3868.95
788.773	2957.61
788.957	1761.59
789.142	4135.19
789.327	2961.7
789.512	1802.55
789.696	5714.17
789.881	6136.06
790.066	2347.31
790.25	5271.81
790.435	2636.08
790.619	4391.19
790.804	3537.18
790.989	2963.75
791.173	5828.86
791.358	3641.63
791.542	1943.86
791.727	2435.38
791.911	2175.28
792.096	1669.44
792.28	2040.12
792.465	2451.76
792.649	2003.25
792.833	3301.67
793.018	2117.94
793.202	3320.1
793.386	5310.72
793.571	4342.04
793.755	3217.7
793.939	1958.2
794.124	2750.76
794.308	3320.1
794.492	2394.42
794.676	1939.77
794.861	2609.45
795.045	3891.48
795.229	1038.66
795.413	4002.07
795.597	2308.4
795.781	3035.43
795.966	5499.14
796.15	3055.91
796.334	6908.14
796.518	5417.22
796.702	2079.03
796.886	3735.84
797.07	5327.11
797.254	4335.89
797.438	2832.68
797.622	2646.32
797.806	3502.37
797.99	4405.52
798.174	3504.42
798.358	5466.37
798.541	5181.7
798.725	5978.36
798.909	3467.55
799.093	4358.42
799.277	3539.23
799.461	5091.59
799.644	430.41
799.828	3273
800.012	5650.69
800.196	3385.63
800.379	3465.5
800.563	1896.76
800.747	5093.64
800.93	3103.01
801.114	2865.45
801.298	2345.27
801.481	5624.06
801.665	5714.17
801.848	1796.41
802.032	3023.14
802.216	6809.84
802.399	3240.23
802.583	2177.33
802.766	1448.26
802.95	4010.26
803.133	5372.16
803.317	1913.14
803.5	1732.92
803.683	3531.04
803.867	1841.47
804.05	4583.7
804.233	5349.64
804.417	6148.34
804.6	3090.73
804.783	4290.84
804.967	5581.06
805.15	4229.4
805.333	4098.33
805.517	4335.89
805.7	2228.53
805.883	3359.01
806.066	5243.14
806.249	5531.9
806.432	2128.18
806.616	3959.06
806.799	2306.35
806.982	2926.89
807.165	4233.49
807.348	4219.16
807.531	2734.38
807.714	3158.31
807.897	4219.16
808.08	4802.83
808.263	5517.57
808.446	5038.34
808.629	4159.77
808.812	3418.4
808.995	3758.36
809.178	5961.98
809.361	5398.79
809.544	5429.51
809.726	6799.6
809.909	5474.56
810.092	5021.96
810.275	5349.64
810.458	7450.85
810.64	5552.38
810.823	5009.67
811.006	4352.27
811.189	6600.94
811.371	3354.91
811.554	4106.52
811.737	5527.81
811.919	5820.67
812.102	3385.63
812.285	2044.21
812.467	4811.02
812.65	3639.58
812.832	3012.9
813.015	5550.34
813.197	5472.51
813.38	5525.76
813.562	6220.02
813.745	2554.16
813.927	2107.7
814.11	5243.14
814.292	3572
814.475	2580.78
814.657	3285.28
814.839	4538.64
815.022	2433.33
815.204	6963.44
815.386	5918.97
815.569	5437.7
815.751	1591.61
815.933	5161.22
816.116	5071.11
816.298	5116.17
816.48	3385.63
816.662	2654.51
816.844	4110.61
817.027	3811.61
817.209	3014.95
817.391	2093.37
817.573	3322.15
817.755	3379.49
817.937	4079.9
818.119	2916.65
818.301	2799.91
818.483	3477.79
818.665	2777.39
818.847	4585.74
819.029	4108.57
819.211	2165.04
819.393	3637.53
819.575	6344.95
819.757	5761.28
819.939	4213.01
820.121	3592.48
820.303	3871
820.485	6465.78
820.666	6287.61
820.848	6080.76
821.03	3582.24
821.212	5298.44
821.394	1843.51
821.575	4452.63
821.757	5820.67
821.939	4215.06
822.121	4264.21
822.302	6598.9
822.484	5011.72
822.666	1454.4
822.847	3127.59
823.029	946.5
823.21	4981
823.392	1675.58
823.573	3535.14
823.755	2154.8
823.937	2210.1
824.118	2654.51
824.3	8343.77
824.481	2683.18
824.662	2867.5
824.844	3713.31
825.025	4782.35
825.207	1829.18
825.388	3498.27
825.569	2574.64
825.751	3023.14
825.932	6234.36
826.113	1767.74
826.295	4782.35
826.476	4167.96
826.657	3565.85
826.839	3078.44
827.02	4376.85
827.201	7061.74
827.382	3416.35
827.563	4686.09
827.744	3060.01
827.926	4104.47
828.107	5652.74
828.288	2142.52
828.469	4172.05
828.65	4753.68
828.831	1501.5
829.012	3422.5
829.193	5488.9
829.374	2902.31
829.555	5742.85
829.736	8868.05
829.917	6291.7
830.098	5124.36
830.279	1526.08
830.46	2644.27
830.641	3672.35
830.822	3580.19
831.002	5249.29
831.183	2711.85
831.364	4708.62
831.545	4704.53
831.726	3524.9
831.906	3455.26
832.087	4733.2
832.268	4264.21
832.449	5492.99
832.629	1534.27
832.81	2949.42
832.991	2554.16
833.171	4002.07
833.352	3946.78
833.532	5267.72
833.713	2607.41
833.894	3264.8
834.074	1378.62
834.255	2662.7
834.435	2447.66
834.616	2629.93
834.796	2861.35
834.977	4555.02
835.157	6402.29
835.338	2261.3
835.518	1433.92
835.698	3442.98
835.879	2302.26
836.059	3504.42
836.239	3512.61
836.42	3240.23
836.6	3641.63
836.78	1067.33
836.961	2347.31
837.141	4512.02
837.321	1904.95
837.501	6615.28
837.682	2335.03
837.862	2941.22
838.042	8515.8
838.222	2347.31
838.402	2674.99
838.582	2990.38
838.763	3797.28
838.943	2707.76
839.123	5026.06
839.303	3539.23
839.483	4552.98
839.663	651.6
839.843	13058.19
840.023	4968.71
840.203	4620.56
840.383	2646.32
840.563	2312.5
840.742	3346.72
840.922	2163
841.102	4012.31
841.282	2814.25
841.462	3143.97
841.642	2683.18
841.822	1560.89
842.001	481.61
842.181	3711.26
842.361	3957.02
842.541	4694.29
842.72	3815.71
842.9	2718
843.08	3320.1
843.259	2873.64
843.439	2662.7
843.619	2146.61
843.798	3047.72
843.978	3961.11
844.157	2273.59
844.337	4161.81
844.517	2238.77
844.696	5355.78
844.876	4137.24
845.055	1716.54
845.235	4124.95
845.414	3234.08
845.593	1687.87
845.773	2304.31
845.952	508.24
846.132	1057.09
846.311	1419.58
846.49	3729.69
846.67	3709.21
846.849	2097.46
847.028	1194.31
847.208	3993.88
847.387	1767.74
847.566	5372.16
847.745	1569.09
847.924	3754.27
848.104	3602.72
848.283	3467.55
848.462	4382.99
848.641	4714.77
848.82	2709.8
848.999	5200.13
849.178	2306.35
849.358	4137.24
849.537	2973.99
849.716	2044.21
849.895	1300.8
850.074	4598.03
850.253	4866.32
850.432	3305.76
850.61	2769.2
850.789	2005.3
850.968	5007.62
851.147	4772.11
851.326	1816.89
851.505	2621.74
851.684	3295.52
851.863	4509.97
852.041	3391.78
852.22	2462
852.399	2019.64
852.578	3776.8
852.756	887.11
852.935	2402.61
853.114	4485.39
853.293	1149.25
853.471	5837.05
853.65	3295.52
853.828	2392.37
854.007	1571.13
854.186	3285.28
854.364	4540.69
854.543	3391.78
854.721	2083.13
854.9	3690.78
855.078	4915.47
855.257	2332.98
855.435	117.08
855.614	3060.01
855.792	2285.87
855.971	2386.22
856.149	960.84
856.327	3537.18
856.506	3039.53
856.684	1943.86
856.862	1558.85
857.041	-562.85
857.219	4321.56
857.397	1634.62
857.576	2144.56
857.754	1978.68
857.932	3936.54
858.11	2394.42
858.288	2359.6
858.467	741.71
858.645	913.74
858.823	2234.68
859.001	3229.99
859.179	1257.79
859.357	1710.4
859.535	3471.65
859.713	4040.98
859.891	3440.93
860.069	6287.61
860.247	2083.13
860.425	389.46
860.603	3348.77
860.781	4641.04
860.959	2973.99
861.137	250.19
861.315	1415.49
861.493	2904.36
861.67	3946.78
861.848	3850.52
862.026	1874.23
862.204	1724.73
862.382	2212.15
862.559	2425.14
862.737	3477.79
862.915	4094.23
863.093	2099.51
863.27	4229.4
863.448	4280.6
863.626	2808.11
863.803	2273.59
863.981	1540.41
864.158	147.8
864.336	1446.21
864.514	1247.55
864.691	700.75
864.869	1427.78
865.046	1200.45
865.224	2718
865.401	3838.23
865.578	1696.06
865.756	4802.83
865.933	332.11
866.111	3979.54
866.288	1202.5
866.465	1853.75
866.643	872.78
866.82	1579.33
866.997	1550.65
867.175	2103.61
867.352	1646.91
867.529	-226.98
867.706	1257.79
867.884	2601.26
868.061	2228.53
868.238	1550.65
868.415	815.43
868.592	1341.76
868.77	1304.9
868.947	3518.75
869.124	1491.26
869.301	354.64
869.478	2365.75
869.655	-671.39
869.832	2234.68
870.009	4794.64
870.186	4692.24
870.363	2380.08
870.54	2400.56
870.717	1812.79
870.894	2113.85
871.071	2939.18
871.247	696.65
871.424	1229.12
871.601	1896.76
871.778	1251.65
871.955	1775.93
872.132	2552.11
872.308	2212.15
872.485	1849.66
872.662	1495.36
872.839	3750.17
873.015	1216.83
873.192	2521.39
873.369	2027.83
873.545	1511.74
873.722	2212.15
873.898	2183.48
874.075	1390.91
874.252	2269.49
874.428	1892.66
874.605	2054.45
874.781	-646.82
874.958	790.86
875.134	2871.59
875.311	2462
875.487	2464.05
875.663	4452.63
875.84	2144.56
876.016	3082.53
876.193	2687.28
876.369	1089.86
876.545	1093.96
876.722	1005.89
876.898	1974.58
877.074	2335.03
877.25	3074.34
877.427	7434.47
877.603	1661.24
877.779	1515.84
877.955	1694.01
878.132	4075.8
878.308	3692.83
878.484	4985.1
878.66	700.75
878.836	2156.85
879.012	1913.14
879.188	2435.38
879.364	2062.65
879.54	1370.43
879.716	244.05
879.892	2105.65
880.068	3559.71
880.244	5347.59
880.42	803.15
880.596	1671.48
880.772	1329.47
880.948	1065.29
881.124	2869.55
881.3	6465.78
881.475	1974.58
881.651	1657.15
881.827	1528.13
882.003	1601.85
882.178	-286.37
882.354	1548.61
882.53	1018.18
882.706	1831.23
882.881	2296.11
883.057	373.07
883.233	1890.62
883.408	3707.16
883.584	1073.48
883.759	186.71
883.935	82.26
884.111	-24.23
884.286	1253.7
884.462	-374.44
884.637	1126.72
884.813	215.38
884.988	1583.42
885.164	4894.99
885.339	469.33
885.514	3252.52
885.69	713.03
885.865	-52.91
886.04	2584.88
886.216	1085.76
886.391	2636.08
886.566	1843.51
886.742	-222.89
886.917	1939.77
887.092	3983.64
887.267	-83.63
887.443	-550.56
887.618	698.7
887.793	809.29
887.968	1990.97
888.143	-1.71
888.318	1581.37
888.494	2642.22
888.669	1493.31
888.844	1618.24
889.019	1255.75
889.194	1214.79
889.369	758.09
889.544	981.32
889.719	2789.67
889.894	4032.79
890.069	2097.46
890.243	2648.36
890.418	1231.17
890.593	514.38
890.768	1605.95
890.943	3397.92
891.118	1265.99
891.293	1827.13
891.467	418.13
891.642	4552.98
891.817	1259.84
891.992	2046.26
892.166	655.69
892.341	2900.27
892.516	1741.11
892.69	1902.9
892.865	-337.57
893.04	1335.62
893.214	3074.34
893.389	2468.14
893.563	4620.56
893.738	4804.88
893.912	1024.33
894.087	2009.4
894.261	3182.88
894.436	627.02
894.61	4315.41
894.785	1767.74
894.959	1745.21
895.134	3445.02
895.308	555.34
895.482	2664.75
895.657	508.24
895.831	874.82
896.005	7272.68
896.18	878.92
896.354	1915.19
896.528	-120.49
896.702	1886.52
896.877	3408.16
897.051	-75.43
897.225	1956.15
897.399	2056.5
897.573	897.35
897.747	1974.58
897.922	1499.45
898.096	3313.95
898.27	190.8
898.444	735.56
898.618	2079.03
898.792	1741.11
898.966	1798.46
899.14	2429.23
899.314	2337.07
899.488	3457.31
899.662	1614.14
899.835	1630.52
900.009	1491.26
900.183	-77.48
900.357	4860.17
900.531	684.36
900.705	250.19
900.878	-595.62
901.052	411.98
901.226	2115.89
901.4	1569.09
901.573	182.61
901.747	-378.53
901.921	823.62
902.095	1132.87
902.268	2619.69
902.442	-313
902.615	-1232.54
902.789	1937.72
902.963	6265.08
903.136	301.39
903.31	2926.89
903.483	-786.08
903.657	2156.85
903.83	706.89
904.004	-2104.97
904.177	516.43
904.35	-52.91
904.524	-1722
904.697	579.92
904.871	710.99
905.044	1524.03
905.217	4894.99
905.391	3346.72
905.564	1116.48
905.737	827.72
905.91	-69.29
906.084	-1928.85
906.257	647.5
906.43	-2190.99
906.603	172.37
906.776	-2967.17
906.949	-1169.05
907.123	-1130.14
907.296	-417.44
907.469	2025.78
907.642	-536.23
907.815	1366.34
907.988	-171.69
908.161	-769.69
908.334	-1029.79
908.507	909.64
908.68	504.14
908.853	110.93
909.026	-655.01
909.199	-528.03
909.371	2310.45
909.544	1421.63
909.717	-44.71
909.89	-1089.18
910.063	-1150.62
910.236	-63.15
910.408	461.13
910.581	-1955.47
910.754	-2049.68
910.927	-2723.46
911.099	287.06
911.272	457.04
911.445	100.69
911.617	-587.43
911.79	1648.96
911.962	-337.57
912.135	-732.83
912.308	-20.14
912.48	-1578.64
912.653	-1156.76
912.825	-792.22
912.998	-732.83
913.17	1274.18
913.343	1462.59
913.515	-595.62
913.687	-1556.11
913.86	317.78
914.032	1569.09
914.205	-491.17
914.377	-124.58
914.549	-2942.59
914.721	633.16
914.894	-1437.33
915.066	-372.39
915.238	-1668.75
915.41	2136.37
915.583	371.02
915.755	-1726.1
915.927	-28.33
916.099	1071.43
916.271	-683.68
916.443	-1828.49
916.616	-1971.85
916.788	3625.25
916.96	2173.24
917.132	-3665.52
917.304	-368.29
917.476	1659.2
917.648	285.01
917.82	-2918.01
917.992	907.59
918.164	860.49
918.335	383.31
918.507	1046.85
918.679	-2401.93
918.851	1642.81
919.023	-575.14
919.195	119.12
919.366	-1971.85
919.538	-2569.86
919.71	-1474.2
919.882	-1412.76
920.053	-1685.14
920.225	-1169.05
920.397	1513.79
920.568	-1722
920.74	-1187.48
920.912	-1050.27
921.083	-1482.39
921.255	-1937.04
921.426	-2006.67
921.598	-112.3
921.77	-892.57
921.941	-2076.3
922.113	-1789.58
922.284	1278.27
922.455	-1117.85
922.627	-2213.51
922.798	-2059.92
922.97	-1525.4
923.141	-1396.37
923.312	-3204.73
923.484	637.26
923.655	-2115.21
923.826	655.69
923.998	-1142.43
924.169	686.41
924.34	-1629.84
924.511	-124.58
924.683	-315.05
924.854	-1218.2
925.025	-157.35
925.196	807.24
925.367	710.99
925.538	65.88
925.709	-360.1
925.881	434.51
926.052	-1318.55
926.223	-734.88
926.394	969.03
926.565	-925.34
926.736	-3423.86
926.907	-1693.33
927.078	428.37
927.248	3868.95
927.419	618.83
927.59	-2700.93
927.761	831.82
927.932	682.31
928.103	-562.85
928.274	-1351.32
928.444	-478.88
928.615	-1062.55
928.786	-1248.92
928.957	-1971.85
929.127	-1183.38
929.298	98.64
929.469	-1191.58
929.639	-624.29
929.81	-274.09
929.981	-157.35
930.151	239.95
930.322	3027.24
930.492	579.92
930.663	3481.89
930.833	-1617.55
931.004	-376.48
931.174	475.47
931.345	-20.14
931.515	-1810.06
931.686	-386.72
931.856	1868.09
932.027	-1896.08
932.197	637.26
932.367	-1724.05
932.538	1259.84
932.708	-1136.28
932.878	-130.73
933.048	-675.49
933.219	-1101.47
933.389	1694.01
933.559	-1599.12
933.729	-1779.34
933.9	362.83
934.07	-1891.98
934.24	-2248.33
934.41	18.77
934.58	-177.83
934.75	741.71
934.92	-2897.53
935.09	190.8
935.26	-1040.03
935.43	2111.8
935.6	-931.48
935.77	516.43
935.94	215.38
936.11	-1109.66
936.28	-1521.3
936.45	827.72
936.62	8.53
936.79	584.01
936.96	-743.07
937.129	-724.64
937.299	61.78
937.469	-112.3
937.639	20.82
937.808	-763.55
937.978	-2096.78
938.148	1325.38
938.317	-200.36
938.487	317.78
938.657	-1197.72
938.826	-1474.2
938.996	-597.67
939.166	-3499.64
939.335	-1988.24
939.505	31.06
939.674	-1310.36
939.844	-1773.2
940.013	147.8
940.183	-2027.15
940.352	-1986.19
940.522	-669.34
940.691	-1101.47
940.86	586.06
941.03	-964.25
941.199	-75.43
941.368	479.57
941.538	1161.54
941.707	-1838.73
941.876	-591.52
942.046	954.69
942.215	-46.76
942.384	-2102.92
942.553	-433.83
942.722	-734.88
942.892	1474.88
943.061	-2762.37
943.23	262.48
943.399	3404.07
943.568	-601.76
943.737	1837.37
943.906	-114.34
944.075	-1408.66
944.244	1274.18
944.413	-935.58
944.582	-2514.56
944.751	-67.24
944.92	-523.94
945.089	463.18
945.258	-665.25
945.427	-460.45
945.596	-562.85
945.764	-511.65
945.933	-1279.64
946.102	1036.61
946.271	-761.5
946.44	-845.47
946.608	-1269.4
946.777	-911
946.946	-331.43
947.114	1866.04
947.283	-833.18
947.452	-1605.27
947.62	-945.82
947.789	760.14
947.958	-1142.43
948.126	362.83
948.295	250.19
948.463	-810.65
948.632	-1003.16
948.8	-732.83
948.969	-1642.13
949.137	-851.61
949.305	-1834.64
949.474	577.87
949.642	608.59
949.811	473.42
949.979	-464.55
950.147	-2010.76
950.316	-1838.73
950.484	-2168.46
950.652	-1392.28
950.82	1380.67
950.989	-2801.28
951.157	-1498.77
951.325	-1994.38
951.493	1278.27
951.661	674.12
951.83	694.6
951.998	-2375.3
952.166	-548.51
952.334	-1568.4
952.502	2867.5
952.67	840.01
952.838	590.16
953.006	2453.81
953.174	84.31
953.342	147.8
953.51	-474.79
953.678	-614.05
953.846	-2602.63
954.014	-280.23
954.181	2126.13
954.349	-1466
954.517	-1881.74
954.685	-1760.91
954.853	-1236.63
955.02	-1584.79
955.188	-2137.74
955.356	-1271.45
955.524	1104.2
955.691	-401.06
955.859	-1674.9
956.027	-548.51
956.194	2603.31
956.362	-1019.55
956.529	454.99
956.697	-1183.38
956.865	428.37
957.032	1376.58
957.2	-2324.1
957.367	-2172.55
957.535	338.26
957.702	774.47
957.87	-2043.53
958.037	198.99
958.204	-1158.81
958.372	854.34
958.539	155.99
958.706	-534.18
958.874	3033.38
959.041	522.57
959.208	-1918.61
959.376	-1171.1
959.543	1044.81
959.71	-126.63
959.877	1143.11
960.044	-241.32
960.212	2429.23
960.379	3027.24
960.546	278.87
960.713	-2592.39
960.88	-532.13
961.047	-57
961.214	23873.51
961.381	2150.71
961.548	-939.68
961.715	-319.14
961.882	-2199.18
962.049	-777.89
962.216	-878.24
962.383	-1212.06
962.55	-890.53
962.717	1597.76
962.883	897.35
963.05	2343.22
963.217	471.37
963.384	-1177.24
963.551	-544.42
963.717	-1269.4
963.884	-63.15
964.051	317.78
964.218	1335.62
964.384	5529.86
964.551	-2025.1
964.717	-2465.41
964.884	-685.73
965.051	-1253.02
965.217	-2096.78
965.384	-2627.2
965.55	997.7
965.717	844.1
965.883	-145.06
966.05	-1306.26
966.216	2076.98
966.383	942.41
966.549	-134.82
966.716	-753.31
966.882	-1693.33
967.048	-1289.88
967.215	-2197.13
967.381	-1220.25
967.547	1950.01
967.713	2007.35
967.88	516.43
968.046	-2270.86
968.212	-712.35
968.378	915.78
968.545	-2287.24
968.711	1012.04
968.877	-609.95
969.043	-114.34
969.209	-1996.43
969.375	1001.8
969.541	2042.17
969.707	2550.06
969.873	1030.47
970.039	-595.62
970.205	1734.97
970.371	4751.63
970.537	1366.34
970.703	364.88
970.869	-816.8
971.035	1704.25
971.201	219.47
971.367	-1523.35
971.532	-388.77
971.698	-452.26
971.864	1409.34
972.03	-1781.39
972.195	-1304.21
972.361	1800.51
972.527	-1199.77
972.693	3143.97
972.858	1753.4
973.024	-1726.1
973.19	-540.32
973.355	381.26
973.521	684.36
973.686	1372.48
973.852	-2453.13
974.017	4284.69
974.183	-2041.48
974.348	698.7
974.514	-2399.88
974.679	-327.33
974.845	-1277.59
975.01	-272.04
975.175	-2786.94
975.341	17424.46
975.506	-255.65
975.672	430.41
975.837	3617.05
976.002	-143.02
976.167	-769.69
976.333	4978.95
976.498	-835.23
976.663	-1713.81
976.828	903.5
976.993	-945.82
977.159	194.9
977.324	614.73
977.489	2984.23
977.654	96.6
977.819	-1052.31
977.984	-722.59
978.149	2623.79
978.314	1108.29
978.479	-1093.27
978.644	-1842.83
978.809	-657.06
978.974	-1549.97
979.139	1939.77
979.304	155.99
979.469	-806.56
979.633	-573.09
979.798	-482.98
979.963	-1552.02
980.128	2756.91
980.293	-1609.36
980.457	-1547.92
980.622	-2141.83
980.787	-1670.8
980.951	-179.88
981.116	-313
981.281	-1668.75
981.445	-194.22
981.61	901.45
981.775	-1683.09
981.939	-2543.24
982.104	2021.69
982.268	1114.44
982.433	1485.12
982.597	-1541.78
982.762	2476.34
982.926	768.33
983.091	-753.31
983.255	-2338.44
983.419	-1744.53
983.584	1608
983.748	-26.28
983.912	24.92
984.077	1831.23
984.241	2009.4
984.405	-1695.38
984.57	1843.51
984.734	-466.6
984.898	-136.87
985.062	-1181.34
985.226	-1240.73
985.39	2658.6
985.555	43.35
985.719	1892.66
985.883	188.75
986.047	-1429.14
986.211	647.5
986.375	-40.62
986.539	-1386.13
986.703	-1324.69
986.867	57.68
987.031	565.58
987.195	-1089.18
987.359	-1617.55
987.523	291.15
987.686	-1978
987.85	-1693.33
988.014	489.81
988.178	-1232.54
988.342	813.38
988.506	530.77
988.669	-317.09
988.833	262.48
988.997	678.22
989.16	-335.53
989.324	-269.99
989.488	2769.2
989.651	194.9
989.815	3045.67
989.979	-1093.27
990.142	145.75
990.306	-523.94
990.469	-1533.59
990.633	1091.91
990.796	1892.66
990.96	-747.17
991.123	231.76
991.286	1710.4
991.45	1046.85
991.613	-1543.83
991.777	-2135.69
991.94	-2031.24
992.103	473.42
992.267	2804.01
992.43	-640.67
992.593	495.95
992.756	940.36
992.92	700.75
993.083	543.05
993.246	-108.2
993.409	-2571.91
993.572	-1961.61
993.735	-372.39
993.899	242
994.062	-372.39
994.225	-839.33
994.388	186.71
994.551	2421.04
994.714	-372.39
994.877	-413.35
995.04	-1578.64
995.203	-1326.74
995.366	1206.59
995.528	-1289.88
995.691	749.9
995.854	-1466
996.017	-700.06
996.18	-2520.71
996.343	-423.59
996.505	1847.61
996.668	633.16
996.831	-622.24
996.994	-358.05
997.156	-286.37
997.319	-1222.3
997.482	1472.83
997.644	-1531.54
997.807	1173.83
997.97	-1789.58
998.132	-1277.59
998.295	1208.64
998.457	287.06
998.62	-1005.21
998.782	-1554.07
998.945	160.08
999.107	84.31
999.27	0.34
999.432	-636.58
999.594	733.51
999.757	2021.69
999.919	139.6
1000.081	-1926.8
1000.244	-169.64
1000.406	-138.92
1000.568	-186.02
1000.731	1767.74
1000.893	1540.41
1001.055	1438.02
1001.217	-548.51
1001.379	-2283.14
1001.542	-1281.69
1001.704	3090.73
1001.866	-568.99
1002.028	1001.8
1002.19	354.64
1002.352	-927.39
1002.514	-1365.65
1002.676	5357.83
1002.838	1681.72
1003	-562.85
1003.162	-1210.01
1003.324	2064.69
1003.486	1157.44
1003.648	-1246.87
1003.809	-534.18
1003.971	954.69
1004.133	-24.23
1004.295	-153.26
1004.457	-231.08
1004.618	561.48
1004.78	293.2
1004.942	3451.17
1005.104	57.68
1005.265	-1377.94
1005.427	840.01
1005.589	-743.07
1005.75	289.1
1005.912	1749.31
1006.073	1988.92
1006.235	272.72
1006.396	-202.41
1006.558	-112.3
1006.72	-97.96
1006.881	321.87
1007.042	-1113.75
1007.204	-1789.58
1007.365	-1255.06
1007.527	1007.94
1007.688	2920.74
1007.849	-18.09
1008.011	55.64
1008.172	250.19
1008.333	856.39
1008.495	-437.92
1008.656	-1978
1008.817	915.78
1008.978	2437.42
1009.139	-718.5
1009.301	557.39
1009.462	-2533
1009.623	897.35
1009.784	-1267.35
1009.945	258.39
1010.106	895.3
1010.267	237.91
1010.428	-1470.1
1010.589	-2051.72
1010.75	84.31
1010.911	-1181.34
1011.072	-2320.01
1011.233	817.48
1011.394	-439.97
1011.555	24.92
1011.716	598.35
1011.877	-1279.64
1012.037	260.43
1012.198	-1152.67
1012.359	489.81
1012.52	-1384.09
1012.68	-290.47
1012.841	-18.09
1013.002	328.02
1013.163	-820.89
1013.323	344.4
1013.484	-1724.05
1013.644	-1300.12
1013.805	514.38
1013.966	-442.02
1014.126	2462
1014.287	-757.41
1014.447	-411.3
1014.608	1276.23
1014.768	-1093.27
1014.929	1044.81
1015.089	-1322.65
1015.249	239.95
1015.41	338.26
1015.57	1005.89
1015.731	-2057.87
1015.891	-655.01
1016.051	629.07
1016.211	-597.67
1016.372	1286.47
1016.532	-691.87
1016.692	-194.22
1016.852	493.9
1017.013	-781.98
1017.173	-181.93
1017.333	-1113.75
1017.493	-773.79
1017.653	-1423
1017.813	-2010.76
1017.973	-304.81
1018.133	-1466
1018.293	-1664.66
1018.453	-241.32
1018.613	-1908.37
1018.773	2009.4
1018.933	-46.76
1019.093	907.59
1019.253	-28.33
1019.413	1173.83
1019.573	-2113.16
1019.733	-427.68
1019.892	2011.45
1020.052	-536.23
1020.212	495.95
1020.372	285.01
1020.531	1474.88
1020.691	-163.5
1020.851	352.59
1021.01	133.46
1021.17	295.25
1021.33	-384.68
1021.489	-1687.18
1021.649	-28.33
1021.808	45.4
1021.968	340.3
1022.127	-2700.93
1022.287	1993.01
1022.446	-745.12
1022.606	721.23
1022.765	-1418.9
1022.925	2634.03
1023.084	901.45
1023.244	1849.66
1023.403	-507.55
1023.562	-933.53
1023.722	-452.26
1023.881	-663.2
1024.04	-329.38
1024.199	799.05
1024.359	55.64
1024.518	-2104.97
1024.677	-810.65
1024.836	-716.45
1024.995	827.72
1025.154	-1099.42
1025.313	-116.39
1025.473	-1210.01
1025.632	-1179.29
1025.791	784.71
1025.95	-1336.98
1026.109	-730.78
1026.268	164.18
1026.427	1356.1
1026.586	1683.77
1026.744	39.25
1026.903	6021.37
1027.062	-274.09
1027.221	944.45
1027.38	313.68
1027.539	1134.92
1027.698	4649.23
1027.856	-1363.61
1028.015	389.46
1028.174	457.04
1028.333	311.63
1028.491	3901.72
1028.65	1544.51
1028.808	3586.33
1028.967	727.37
1029.126	608.59
1029.284	-1883.79
1029.443	416.08
1029.601	-614.05
1029.76	-1539.73
1029.918	-1197.72
1030.077	708.94
1030.235	2091.32
1030.394	-655.01
1030.552	1194.31
1030.711	2699.56
1030.869	-540.32
1031.027	-853.66
1031.186	-2492.04
1031.344	-1068.7
1031.502	-286.37
1031.661	1157.44
1031.819	2216.24
1031.977	1132.87
1032.135	-1691.28
1032.293	-853.66
1032.452	-1386.13
1032.61	3569.95
1032.768	-1660.56
1032.926	16.73
1033.084	3082.53
1033.242	-618.15
1033.4	-1484.44
1033.558	745.8
1033.716	-276.13
1033.874	-808.61
1034.032	-186.02
1034.19	-265.89
1034.348	2201.91
1034.506	-1793.68
1034.664	569.68
1034.822	-1711.76
1034.979	2640.17
1035.137	833.86
1035.295	-208.55
