Data from TmLN Sample 3_USBC44471_15-10-42-375.txt Node
Date: Wed Jul 29 15:10:42 MDT 2020
User: Montana Instruments
Spectrometer: USBC4447
Scans to average: 1
Trigger mode: 4
Integration Time (sec): 1.000000E1
Electric dark correction enabled: true
Boxcar width: 0
XAxis mode: Wavelengths
Number of Pixels in Spectrum: 3648
>>>>>Begin Spectral Data<<<<<
344.991	-4714.77
345.205	-4714.77
345.419	-4714.77
345.633	-4729.1
345.847	-4722.96
346.061	-135.51
346.275	1306.26
346.489	-1784.12
346.703	106.15
346.917	-3025.19
347.131	1711.76
347.345	-764.23
347.559	-979.27
347.773	2137.74
347.986	67.24
348.2	3556.98
348.414	-2197.81
348.628	-1149.25
348.842	-2064.69
349.056	-1696.06
349.269	773.79
349.483	1887.89
349.697	2018.96
349.911	1967.76
350.125	-1610.04
350.338	958.11
350.552	1355.41
350.766	-387.41
350.979	-2953.51
351.193	-301.39
351.407	5817.94
351.621	308.9
351.834	-2591.02
352.048	2981.5
352.262	-735.56
352.475	3829.36
352.689	1681.04
352.902	2041.48
353.116	302.76
353.33	-1986.87
353.543	-2005.3
353.757	833.18
353.971	585.38
354.184	745.12
354.398	-426.32
354.611	1367.7
354.825	3290.74
355.038	1699.47
355.252	-72.02
355.465	-180.56
355.679	-3377.44
355.892	1162.9
356.106	1851.02
356.319	8078.9
356.533	-1122.63
356.746	97.96
356.96	-979.27
357.173	-2752.81
357.386	1965.71
357.6	-579.92
357.813	-1515.84
358.027	-3369.25
358.24	-1577.28
358.453	3104.38
358.667	-2167.09
358.88	1527.44
359.094	-2232.63
359.307	743.07
359.52	-438.61
359.733	2578.05
359.947	-3627.29
360.16	1855.12
360.373	2305.67
360.587	-2072.89
360.8	-1038.66
361.013	93.87
361.226	-1331.52
361.44	3106.43
361.653	2174.6
361.866	-1038.66
362.079	-3797.28
362.292	648.86
362.506	3993.2
362.719	1199.77
362.932	3520.12
363.145	300.71
363.358	-1925.43
363.571	-2079.03
363.785	-141.65
363.998	1834.64
364.211	2428.55
364.424	-1931.58
364.637	1582.74
364.85	-850.25
365.063	2504.32
365.276	593.57
365.489	-2361.65
365.702	-0.34
365.915	536.23
366.128	61.1
366.341	2455.17
366.554	3892.85
366.767	-1526.08
366.98	521.89
367.193	1517.2
367.406	-2634.03
367.619	4327.02
367.832	2258.57
368.045	779.93
368.258	796.32
368.471	1482.39
368.684	-3643.68
368.896	-3451.17
369.109	376.48
369.322	-2130.23
369.535	245.41
369.748	-2441.52
369.961	-792.91
370.173	-3670.3
370.386	-3764.51
370.599	3202.68
370.812	-403.79
371.025	-1556.8
371.237	585.38
371.45	734.88
371.663	1355.41
371.876	-1192.26
372.088	5320.28
372.301	-1370.43
372.514	-2863.4
372.726	857.76
372.939	-102.74
373.152	-950.6
373.364	1541.78
373.577	3806.83
373.79	-227.67
374.002	-1687.87
374.215	-3778.84
374.428	-3326.24
374.64	1920.65
374.853	-1386.82
375.065	-604.49
375.278	4103.79
375.491	628.39
375.703	1928.85
375.916	-3414.31
376.128	-1388.86
376.341	-2611.5
376.553	1410.71
376.766	-2689.32
376.978	-3307.81
377.191	1160.86
377.403	-3209.51
377.616	3624.56
377.828	4552.29
378.04	-2079.03
378.253	-684.36
378.465	689.82
378.678	1625.75
378.89	-1786.17
379.103	-1136.96
379.315	648.86
379.527	-3264.8
379.74	-323.92
379.952	102.06
380.164	-2797.87
380.377	2541.19
380.589	433.83
380.801	452.26
381.014	2072.2
381.226	1562.26
381.438	513.7
381.65	-2642.22
381.863	593.57
382.075	-2117.94
382.287	-3731.74
382.499	-1628.48
382.712	231.08
382.924	255.65
383.136	-979.27
383.348	-3729.69
383.56	327.33
383.772	-2054.45
383.985	644.77
384.197	1859.21
384.409	-391.5
384.621	757.41
384.833	513.7
385.045	544.42
385.257	-2191.67
385.469	-948.55
385.681	618.15
385.893	532.13
386.105	-1861.94
386.318	-3733.79
386.53	83.63
386.742	-3852.57
386.954	-3506.46
387.166	3251.83
387.378	513.7
387.589	401.06
387.801	-3666.21
388.013	-3041.57
388.225	-2040.12
388.437	-3713.31
388.649	-3250.47
388.861	3178.11
389.073	1552.02
389.285	-809.29
389.497	1232.54
389.709	1906.32
389.92	-1732.92
390.132	-1532.22
390.344	-1089.86
390.556	-1171.78
390.768	749.22
390.98	-1210.69
391.191	2332.3
391.403	1158.81
391.615	677.54
391.827	-2244.92
392.038	-1466.69
392.25	-229.71
392.462	-3610.91
392.674	-3537.18
392.885	-2642.22
393.097	-3553.57
393.309	-889.16
393.52	1678.99
393.732	-3080.49
393.944	1035.93
394.155	659.1
394.367	-2584.88
394.579	1066.65
394.79	-2380.08
395.002	274.09
395.213	-3737.88
395.425	-90.45
395.637	-2386.22
395.848	-3725.6
396.06	868
396.271	796.32
396.483	-2734.38
396.694	89.77
396.906	-487.76
397.117	1722
397.329	2002.57
397.54	-846.15
397.752	-3461.41
397.963	-2091.32
398.175	609.95
398.386	1672.85
398.598	-1335.62
398.809	-3674.4
399.02	1398.42
399.232	1355.41
399.443	519.84
399.655	-1517.89
399.866	-2470.19
400.077	-196.95
400.289	1871.5
400.5	460.45
400.711	1304.21
400.923	-2146.61
401.134	-2140.47
401.345	-3397.92
401.556	3747.44
401.768	-1229.12
401.979	-710.99
402.19	1339.03
402.401	-905.54
402.613	634.53
402.824	-809.29
403.035	-3569.95
403.246	-3516.7
403.457	904.86
403.669	532.13
403.88	-2732.33
404.091	-3615.01
404.302	-2081.08
404.513	-700.75
404.724	-1284.42
404.935	-1218.88
405.146	1564.31
405.358	-3391.78
405.569	-2914.6
405.78	-3543.33
405.991	-926.02
406.202	394.92
406.413	-20.82
406.624	-3186.98
406.835	-92.5
407.046	3321.46
407.257	229.03
407.468	1703.57
407.679	-178.51
407.89	2395.78
408.101	2567.81
408.312	-739.66
408.522	-3490.08
408.733	894.62
408.944	683.68
409.155	-874.82
409.366	1527.44
409.577	-3658.01
409.788	28.33
409.999	571.04
410.209	-506.19
410.42	618.15
410.631	-3359.01
410.842	54.95
411.053	5373.53
411.264	1488.53
411.474	-1757.5
411.685	104.11
411.896	-2062.65
412.107	-3645.73
412.317	-1360.19
412.528	2483.84
412.739	-3686.69
412.949	-2609.45
413.16	528.03
413.371	2670.21
413.581	1400.47
413.792	-516.43
414.003	4071.02
414.213	2119.31
414.424	-3655.97
414.635	-555.34
414.845	-2154.8
415.056	1375.89
415.266	-2722.09
415.477	-3850.52
415.687	1207.96
415.898	1468.05
416.109	-3014.95
416.319	683.68
416.53	-3750.17
416.74	515.75
416.951	-2154.8
417.161	425.64
417.372	556.71
417.582	1054.36
417.792	2047.63
418.003	2725.51
418.213	-676.17
418.424	861.85
418.634	-2640.17
418.844	1545.88
419.055	2471.56
419.265	-2576.69
419.476	1048.22
419.686	-1540.41
419.896	366.25
420.107	-2468.14
420.317	-602.44
420.527	374.44
420.738	-250.19
420.948	1595.03
421.158	1867.41
421.368	-733.51
421.579	-149.84
421.789	-2447.66
421.999	-3936.54
422.209	-209.23
422.419	-387.41
422.63	-182.61
422.84	-194.9
423.05	-1714.49
423.26	-1747.26
423.47	-149.84
423.681	-3481.89
423.891	1398.42
424.101	2023.05
424.311	-1925.43
424.521	87.72
424.731	-899.4
424.941	-586.06
425.151	888.48
425.361	-2677.04
425.571	-4129.05
425.781	4527.72
425.991	1302.17
426.201	2107.02
426.411	820.89
426.621	-2310.45
426.831	-3629.34
427.041	579.23
427.251	-418.13
427.461	1867.41
427.671	1592.98
427.881	-749.9
428.091	167.59
428.301	2854.53
428.511	61.1
428.721	-3903.77
428.93	-430.41
429.14	-1962.3
429.35	493.22
429.56	-1345.86
429.77	-328.02
429.98	-2361.65
430.189	-2085.17
430.399	3348.09
430.609	2111.11
430.819	681.63
431.029	-2605.36
431.238	-1081.67
431.448	-1104.2
431.658	-3510.56
431.867	-1302.85
432.077	548.51
432.287	-1708.35
432.497	-1810.75
432.706	118.44
432.916	-151.89
433.125	-3993.88
433.335	-1851.71
433.545	1756.82
433.754	4329.06
433.964	-2015.54
434.174	-1333.57
434.383	2592.39
434.593	-1726.78
434.802	1431.19
435.012	-2068.79
435.221	523.94
435.431	-409.94
435.64	-2132.28
435.85	-1823.03
436.059	702.11
436.269	1316.5
436.478	-1595.71
436.688	-3598.62
436.897	-1861.94
437.107	-3694.88
437.316	28114.17
437.525	485.03
437.735	366.25
437.944	302.76
438.154	2954.88
438.363	575.14
438.572	3249.79
438.782	712.35
438.991	-1358.14
439.2	-221.52
439.41	-2718
439.619	-1241.41
439.828	577.19
440.038	370.34
440.247	2625.15
440.456	-2050.36
440.665	1140.38
440.875	1406.61
441.084	544.42
441.293	-2384.18
441.502	-2064.69
441.711	-2226.48
441.92	616.1
442.13	-10.58
442.339	-2148.66
442.548	-790.86
442.757	2260.62
442.966	-4038.94
443.175	-1466.69
443.384	1912.46
443.593	2074.25
443.803	-3244.32
444.012	9.9
444.221	-647.5
444.43	5023.33
444.639	997.02
444.848	2471.56
445.057	-2435.38
445.266	-3082.53
445.475	-3658.01
445.684	-1863.99
445.893	2604.67
446.102	405.16
446.311	-4102.42
446.52	456.36
446.728	3569.27
446.937	-3410.21
447.146	-4092.18
447.355	814.75
447.564	-368.98
447.773	2059.92
447.982	1844.88
448.191	1187.48
448.399	-2466.1
448.608	-2314.55
448.817	-407.89
449.026	1459.86
449.235	-2916.65
449.443	1416.85
449.652	-426.32
449.861	-1421.63
450.07	458.4
450.278	2221.7
450.487	-4102.42
450.696	425.64
450.904	-2531.63
451.113	-2343.22
451.322	1175.19
451.53	-731.47
451.739	3403.38
451.948	-2482.48
452.156	716.45
452.365	4648.55
452.574	1283.74
452.782	663.2
452.991	-231.76
453.199	1224.34
453.408	820.89
453.616	-3137.83
453.825	1795.73
454.033	1969.8
454.242	3753.59
454.45	3972.72
454.659	1023.64
454.867	15674.81
455.076	-2036.02
455.284	-2492.72
455.493	-2394.42
455.701	-1761.59
455.91	3622.52
456.118	-2550.06
456.326	-3311.91
456.535	3239.55
456.743	1730.19
456.951	-3260.71
457.16	1797.78
457.368	1326.74
457.576	-2996.52
457.785	3198.59
457.993	333.48
458.201	-2431.28
458.41	1193.62
458.618	-2378.03
458.826	300.71
459.034	-4217.11
459.243	-2984.23
459.451	83.63
459.659	478.88
459.867	-354.64
460.075	-1575.23
460.284	-534.86
460.492	-3698.97
460.7	-106.84
460.908	-969.03
461.116	-3463.46
461.324	-1556.8
461.532	-4040.98
461.741	-3141.93
461.949	-2265.39
462.157	2543.24
462.365	284.33
462.573	44.71
462.781	683.68
462.989	-405.84
463.197	-2904.36
463.405	-3213.6
463.613	126.63
463.821	-3954.97
464.029	325.29
464.237	-2224.44
464.445	-2142.52
464.653	1429.14
464.861	1.71
465.069	1752.72
465.276	5181.02
465.484	-416.08
465.692	-575.82
465.9	-1651
466.108	-1640.76
466.316	1300.12
466.524	-880.97
466.731	-797
466.939	2248.33
467.147	491.17
467.355	235.18
467.563	1920.65
467.77	1128.09
467.978	-3973.4
468.186	943.77
468.393	2567.81
468.601	-903.5
468.809	-2961.7
469.017	-753.99
469.224	-2892.07
469.432	1474.2
469.64	-1433.92
469.847	-3592.48
470.055	1062.55
470.263	-2777.39
470.47	-975.17
470.678	1920.65
470.885	11.95
471.093	3221.11
471.3	1287.83
471.508	-2711.85
471.716	-727.37
471.923	-57.68
472.131	835.23
472.338	-2257.2
472.546	-1558.85
472.753	3309.18
472.961	-1737.02
473.168	67.24
473.375	-956.74
473.583	1658.51
473.79	188.07
473.998	650.91
474.205	788.13
474.412	2483.84
474.62	-551.24
474.827	-2308.4
475.035	2080.39
475.242	-2107.7
475.449	-2105.65
475.657	4480.61
475.864	3554.93
476.071	-69.97
476.278	-1057.09
476.486	-844.1
476.693	808.61
476.9	515.75
477.107	841.37
477.315	-1556.8
477.522	503.46
477.729	1934.99
477.936	-278.87
478.143	-2738.48
478.351	1883.79
478.558	-2867.5
478.765	-362.83
478.972	-98.64
479.179	1011.36
479.386	1248.92
479.593	1451.67
479.8	1627.79
480.007	-2863.4
480.215	-274.77
480.422	1576.59
480.629	-3621.15
480.836	1648.27
481.043	3792.5
481.25	-379.22
481.457	-2412.85
481.664	-1075.52
481.871	1101.47
482.078	-1360.19
482.284	-2634.03
482.491	2563.72
482.698	2135.69
482.905	-1143.11
483.112	-3950.87
483.319	648.86
483.526	155.3
483.733	2829.95
483.94	-3987.74
484.146	-3057.96
484.353	-69.97
484.56	-409.94
484.767	-4004.12
484.974	2754.18
485.18	2266.76
485.387	16.04
485.594	-1730.87
485.801	2313.86
486.007	255.65
486.214	-659.79
486.421	-3498.27
486.627	-274.77
486.834	1283.74
487.041	1005.21
487.247	-1952.06
487.454	-2765.1
487.661	1506.96
487.867	1193.62
488.074	-3199.27
488.281	1748.62
488.487	-897.35
488.694	-676.17
488.9	-264.53
489.107	-2054.45
489.313	-2009.4
489.52	-252.24
489.726	-2664.75
489.933	3524.21
490.139	3399.29
490.346	-115.03
490.552	902.81
490.759	-610.64
490.965	448.16
491.172	16797.1
491.378	-266.58
491.584	501.41
491.791	2207.37
491.997	296.61
492.204	-127.32
492.41	3673.71
492.616	-3221.8
492.823	-1917.24
493.029	-1718.59
493.235	2852.48
493.442	-401.74
493.648	-356.69
493.854	-547.15
494.06	5052
494.267	1279.64
494.473	-627.02
494.679	-1966.39
494.885	876.19
495.091	3802.74
495.298	1363.61
495.504	-4004.12
495.71	-227.67
495.916	-3416.35
496.122	3040.89
496.328	1109.66
496.535	1222.3
496.741	-1315.14
496.947	1236.63
497.153	-18.77
497.359	1048.22
497.565	859.81
497.771	2252.42
497.977	140.97
498.183	-1136.96
498.389	1197.72
498.595	-2203.96
498.801	1003.16
499.007	1293.97
499.213	-620.88
499.419	-223.57
499.625	413.35
499.831	3860.08
500.037	-1358.14
500.243	-1786.17
500.448	-364.88
500.654	1613.46
500.86	2414.21
501.066	-178.51
501.272	2897.53
501.478	-3244.32
501.684	-1626.43
501.889	-2711.85
502.095	-2425.14
502.301	-444.75
502.507	1058.46
502.712	69.29
502.918	-1614.14
503.124	-2109.75
503.33	1592.98
503.535	-569.68
503.741	640.67
503.947	-454.99
504.152	-502.09
504.358	-3637.53
504.564	-483.66
504.769	925.34
504.975	5025.37
505.181	415.4
505.386	-3033.38
505.592	-1442.11
505.797	1076.89
506.003	-3977.5
506.208	2512.52
506.414	-520.53
506.619	245.41
506.825	1109.66
507.03	-3670.3
507.236	-2234.68
507.441	77.48
507.647	122.54
507.852	472.74
508.058	1820.3
508.263	1697.42
508.469	9.9
508.674	-3840.28
508.879	-1134.92
509.085	-440.65
509.29	-2369.84
509.495	-2019.64
509.701	-1685.82
509.906	1379.99
510.111	-192.85
510.317	1619.6
510.522	745.12
510.727	2752.13
510.933	-362.83
511.138	968.35
511.343	-1376.58
511.548	1056.41
511.754	-2011.45
511.959	2782.85
512.164	229.03
512.369	3812.98
512.574	3974.77
512.779	-2175.28
512.985	-620.88
513.19	1633.94
513.395	609.95
513.6	-1601.85
513.805	57
514.01	2440.84
514.215	294.57
514.42	3303.03
514.625	-747.85
514.83	2983.55
515.035	323.24
515.24	511.65
515.445	3509.88
515.65	2580.1
515.855	900.76
516.06	-174.42
516.265	1167
516.47	1982.09
516.675	884.38
516.88	-3920.15
517.085	454.31
517.29	-1487.17
517.495	1089.18
517.7	2107.02
517.904	-84.31
518.109	1007.26
518.314	20.14
518.519	997.02
518.724	1222.3
518.928	1093.27
519.133	-47.44
519.338	847.52
519.543	966.3
519.747	1533.59
519.952	3436.15
520.157	6950.46
520.362	1425.04
520.566	3448.44
520.771	-2859.31
520.976	1537.68
521.18	4556.39
521.385	-2418.99
521.59	-532.81
521.794	911
521.999	2637.44
522.203	-2257.2
522.408	-33.11
522.612	-1053
522.817	1169.05
523.022	2895.49
523.226	433.83
523.431	-1765.69
523.635	609.95
523.84	2653.83
524.044	-461.13
524.249	2193.03
524.453	3485.3
524.657	517.79
524.862	7339.58
525.066	-930.12
525.271	-137.56
525.475	1828.49
525.679	544.42
525.884	-3178.79
526.088	1990.28
526.292	3102.33
526.497	745.12
526.701	-710.99
526.905	-151.89
527.11	386.72
527.314	249.51
527.518	3886.7
527.722	-1360.19
527.927	1873.55
528.131	-2998.57
528.335	5938.77
528.539	2287.24
528.744	3358.33
528.948	-2578.73
529.152	-1177.92
529.356	3167.87
529.56	1109.66
529.764	751.26
529.968	548.51
530.173	8361.52
530.377	7020.1
530.581	-2369.84
530.785	2330.25
530.989	-637.26
531.193	706.21
531.397	-1159.49
531.601	831.13
531.805	2324.1
532.009	2336.39
532.213	540.32
532.417	1445.52
532.621	2707.07
532.825	3909.23
533.029	720.54
533.233	1257.11
533.436	1269.4
533.64	573.09
533.844	2371.21
534.048	-192.85
534.252	1859.21
534.456	4191.85
534.66	2854.53
534.863	661.15
535.067	759.46
535.271	2819.71
535.475	138.92
535.679	2705.03
535.882	3612.28
536.086	2559.62
536.29	3028.6
536.493	1167
536.697	2193.03
536.901	1633.94
537.104	2551.43
537.308	1795.73
537.512	1984.14
537.715	4556.39
537.919	2338.44
538.123	2604.67
538.326	1953.42
538.53	3466.87
538.733	4222.57
538.937	2885.25
539.141	2334.34
539.344	3729.01
539.548	2846.34
539.751	5512.79
539.955	6118.99
540.158	8001.07
540.362	5672.53
540.565	3743.35
540.768	5086.81
540.972	11539.96
541.175	9700.89
541.379	7589.43
541.582	6874.69
541.785	8539.69
541.989	10532.36
542.192	6096.46
542.396	6903.36
542.599	8994.34
542.802	9545.24
543.005	8279.6
543.209	7218.75
543.412	8975.91
543.615	8701.48
543.819	8838.69
544.022	7056.96
544.225	8001.07
544.428	8410.67
544.631	10892.8
544.835	7921.2
545.038	6782.53
545.241	7280.19
545.444	10231.31
545.647	8703.53
545.85	7663.16
546.054	6063.69
546.257	4525.67
546.46	7233.08
546.663	6721.09
546.866	7298.62
547.069	7353.91
547.272	5914.19
547.475	6616.65
547.678	5965.39
547.881	4796
548.084	5160.54
548.287	5512.79
548.49	2997.88
548.693	4550.25
548.896	2442.89
549.099	5090.91
549.302	3120.76
549.505	2688.64
549.707	2305.67
549.91	4554.34
550.113	2649.73
550.316	2244.23
550.519	5113.44
550.722	4716.13
550.924	2285.19
551.127	3804.78
551.33	2645.63
551.533	2047.63
551.736	1789.58
551.938	1685.14
552.141	3540.6
552.344	1136.28
552.546	3575.41
552.749	2307.72
552.952	2387.59
553.154	2274.95
553.357	2440.84
553.56	2139.79
553.762	7618.1
553.965	6348.36
554.168	2387.59
554.37	4179.56
554.573	3300.98
554.775	4798.05
554.978	3677.81
555.18	1035.93
555.383	1689.23
555.585	5766.74
555.788	3165.82
555.99	1967.76
556.193	2487.94
556.395	3753.59
556.598	1457.81
556.8	2172.55
557.003	2530.95
557.205	6162
557.407	2057.87
557.61	2672.26
557.812	2768.51
558.015	4888.16
558.217	2293.38
558.419	2793.09
558.622	4435.56
558.824	2836.1
559.026	1418.9
559.228	2320.01
559.431	3997.29
559.633	3585.65
559.835	2352.77
560.037	3843.7
560.24	5353.05
560.442	4802.15
560.644	2055.82
560.846	3886.7
561.048	4302.44
561.25	5152.35
561.453	3516.02
561.655	2582.15
561.857	3116.67
562.059	2598.53
562.261	5068.38
562.463	3534.45
562.665	3294.84
562.867	4398.7
563.069	4298.35
563.271	5301.85
563.473	4062.83
563.675	3749.49
563.877	3870.32
564.079	2647.68
564.281	5836.37
564.483	4157.04
564.685	3456.63
564.887	3092.09
565.089	4904.54
565.291	5176.92
565.493	2414.21
565.694	5940.82
565.896	2563.72
566.098	4642.4
566.3	5766.74
566.502	3296.89
566.704	6053.45
566.905	1042.07
567.107	1937.04
567.309	1853.07
567.511	4873.82
567.712	1910.41
567.914	3088
568.116	1017.5
568.317	5316.19
568.519	3825.26
568.721	888.48
568.922	706.21
569.124	3266.17
569.326	5686.87
569.527	2991.74
569.729	2391.69
569.93	7280.19
570.132	2434.69
570.334	4718.18
570.535	1416.85
570.737	2541.19
570.938	6835.78
571.14	2664.07
571.341	4073.07
571.543	7548.47
571.744	3251.83
571.946	4972.13
572.147	2049.68
572.348	6006.35
572.55	4855.39
572.751	5262.94
572.953	2743.94
573.154	4908.64
573.355	7085.63
573.557	9526.81
573.758	4202.09
573.959	3888.75
574.161	5709.4
574.362	5834.32
574.563	7968.31
574.765	6471.24
574.966	6774.34
575.167	2911.87
575.368	5920.34
575.569	4361.83
575.771	6553.16
575.972	3559.03
576.173	4709.99
576.374	6151.76
576.575	5477.98
576.776	2098.83
576.978	3036.8
577.179	3858.03
577.38	4802.15
577.581	3300.98
577.782	4089.45
577.983	5738.07
578.184	6374.99
578.385	3903.09
578.586	4660.84
578.787	3114.62
578.988	4587.11
579.189	2424.45
579.39	3376.76
579.591	4251.24
579.792	3497.59
579.993	5322.33
580.194	5318.23
580.395	6561.35
580.596	4691.56
580.796	5774.93
580.997	3378.81
581.198	4124.27
581.399	6188.62
581.6	6706.76
581.801	3260.02
582.001	7247.42
582.202	2768.51
582.403	1898.13
582.604	7921.2
582.804	4128.36
583.005	4632.16
583.206	1253.02
583.407	5844.56
583.607	3671.67
583.808	3235.45
584.009	5271.13
584.209	5103.2
584.41	2156.17
584.61	3851.89
584.811	3751.54
585.012	3114.62
585.212	2332.3
585.413	3714.67
585.613	3626.61
585.814	2530.95
586.014	5738.07
586.215	3163.77
586.415	3731.06
586.616	2485.89
586.816	3231.35
587.017	5191.26
587.217	2283.14
587.418	6719.04
587.618	3167.87
587.819	3223.16
588.019	1662.61
588.219	1242.78
588.42	3282.55
588.62	1506.96
588.82	1486.48
589.021	1904.27
589.221	3901.04
589.421	2139.79
589.622	4345.45
589.822	1765.01
590.022	5781.07
590.222	4052.59
590.423	2424.45
590.623	1361.56
590.823	3446.39
591.023	3282.55
591.223	1177.24
591.423	6317.64
591.624	3083.9
591.824	2891.39
592.024	1859.21
592.224	2772.61
592.424	5760.59
592.624	2930.3
592.824	3399.29
593.024	2451.08
593.224	5520.98
593.424	5221.98
593.624	3133.05
593.824	2899.58
594.024	3503.73
594.224	1425.04
594.424	3092.09
594.624	1134.23
594.824	2291.34
595.024	1627.79
595.224	3008.12
595.424	1379.99
595.624	988.83
595.824	1607.31
596.023	4558.44
596.223	4324.97
596.423	2066.06
596.623	3376.76
596.823	272.04
597.023	-651.6
597.222	6739.52
597.422	1220.25
597.622	224.94
597.822	1515.16
598.021	2911.87
598.221	1324.69
598.421	-178.51
598.62	1945.23
598.82	1093.27
599.02	5418.58
599.219	4857.44
599.419	3008.12
599.618	1089.18
599.818	3051.13
600.018	-278.87
600.217	1496.72
600.417	4540.01
600.616	1898.13
600.816	2477.7
601.015	2369.16
601.215	1437.33
601.414	1074.84
601.614	1304.21
601.813	-436.56
602.013	2446.98
602.212	2043.53
602.412	738.98
602.611	3090.04
602.81	2535.04
603.01	3593.84
603.209	2086.54
603.408	-1128.77
603.608	2979.45
603.807	1511.06
604.006	6637.13
604.206	482.98
604.405	1867.41
604.604	2291.34
604.803	2072.2
605.003	913.05
605.202	376.48
605.401	1203.86
605.6	2860.67
605.8	945.82
605.999	771.74
606.198	2389.64
606.397	2535.04
606.596	1345.17
606.795	3335.8
606.994	4015.73
607.193	1392.28
607.393	4255.34
607.592	4445.8
607.791	2147.98
607.99	4396.65
608.189	4247.15
608.388	5244.51
608.587	4707.94
608.786	2846.34
608.985	1220.25
609.184	2549.38
609.382	4107.88
609.581	3325.56
609.78	5293.66
609.979	4642.4
610.178	3655.28
610.377	2954.88
610.576	1085.08
610.775	3735.15
610.973	3808.88
611.172	4558.44
611.371	3229.31
611.57	2819.71
611.769	5244.51
611.967	2082.44
612.166	5424.73
612.365	3401.33
612.564	3542.64
612.762	3589.75
612.961	3890.8
613.16	2600.58
613.358	3407.48
613.557	294.57
613.756	3495.54
613.954	4789.86
614.153	1758.86
614.351	1920.65
614.55	1017.5
614.749	4183.66
614.947	2569.86
615.146	1314.45
615.344	2846.34
615.543	380.58
615.741	2770.56
615.94	3571.32
616.138	1320.6
616.337	3380.86
616.535	1545.88
616.733	648.86
616.932	2021
617.13	4218.47
617.329	5398.1
617.527	-702.79
617.725	-2572.59
617.924	-1839.42
618.122	773.79
618.32	-418.13
618.519	-2177.33
618.717	3010.17
618.915	2768.51
619.114	1560.21
619.312	353.96
619.51	792.22
619.708	2952.83
619.906	-141.65
620.105	-160.08
620.303	-248.15
620.501	4517.48
620.699	-2373.94
620.897	1396.37
621.095	2481.8
621.293	-2478.38
621.492	2492.04
621.69	421.54
621.888	1670.8
622.086	3714.67
622.284	1730.19
622.482	906.91
622.68	1222.3
622.878	388.77
623.076	466.6
623.274	523.94
623.472	663.2
623.67	1703.57
623.868	-3811.61
624.065	1586.83
624.263	716.45
624.461	1400.47
624.659	-135.51
624.857	3665.52
625.055	2920.06
625.253	-811.34
625.45	376.48
625.648	566.95
625.846	634.53
626.044	472.74
626.242	908.96
626.439	2637.44
626.637	1379.99
626.835	-373.07
627.032	2487.94
627.23	-2447.66
627.428	4068.97
627.626	1730.19
627.823	1011.36
628.021	3311.22
628.218	2555.52
628.416	2018.96
628.614	-1317.19
628.811	-2576.69
629.009	-1534.27
629.206	-987.46
629.404	-946.5
629.601	671.39
629.799	-3197.22
629.996	3862.13
630.194	1576.59
630.391	1486.48
630.589	-614.73
630.786	2592.39
630.984	984.73
631.181	-3637.53
631.378	-1073.48
631.576	2264.71
631.773	-3268.9
631.97	-2081.08
632.168	-3111.21
632.365	204.46
632.562	1021.6
632.76	-1014.09
632.957	941.72
633.154	165.54
633.352	1195.67
633.549	-569.68
633.746	2762.37
633.943	1386.13
634.14	-94.55
634.338	2877.05
634.535	-463.18
634.732	-612.68
634.929	3366.52
635.126	1257.11
635.323	380.58
635.52	2823.81
635.717	1015.45
635.915	-16.73
636.112	345.77
636.309	-3350.82
636.506	-39.25
636.703	-4012.31
636.9	-407.89
637.097	5684.82
637.294	773.79
637.491	-1104.2
637.688	2735.74
637.884	-2459.95
638.081	-227.67
638.278	251.56
638.475	-543.05
638.672	-1524.03
638.869	-598.35
639.066	6262.35
639.263	1533.59
639.459	1162.9
639.656	-3838.23
639.853	-2957.61
640.05	5054.05
640.246	2676.35
640.443	374.44
640.64	-4188.44
640.837	767.65
641.033	-3270.95
641.23	380.58
641.427	190.12
641.623	1089.18
641.82	-1659.2
642.017	-1233.22
642.213	-356.69
642.41	-1208.64
642.606	1787.54
642.803	1836.69
643	726.69
643.196	-2773.29
643.393	2649.73
643.589	831.13
643.786	-1306.95
643.982	4695.65
644.179	1967.76
644.375	-774.47
644.571	-131.41
644.768	-2930.98
644.964	-530.77
645.161	93.87
645.357	3202.68
645.553	743.07
645.75	2619.01
645.946	726.69
646.143	177.83
646.339	790.17
646.535	724.64
646.731	1832.59
646.928	386.72
647.124	-3258.66
647.32	2735.74
647.516	2444.93
647.713	-2412.85
647.909	87.72
648.105	-985.41
648.301	-4065.56
648.497	970.4
648.693	-975.17
648.89	-1448.26
649.086	265.89
649.282	-1179.97
649.478	-758.09
649.674	306.85
649.87	2580.1
650.066	1877.65
650.262	-2232.63
650.458	2231.94
650.654	-1708.35
650.85	732.83
651.046	-872.78
651.242	28.33
651.438	743.07
651.634	-2654.51
651.83	-1872.18
652.026	777.89
652.222	106.15
652.417	57
652.613	1797.78
652.809	-2865.45
653.005	-962.89
653.201	2995.84
653.397	-2582.83
653.592	-467.28
653.788	-1175.88
653.984	2104.97
654.18	5316.19
654.375	-2353.46
654.571	362.15
654.767	91.82
654.962	-2294.07
655.158	-3463.46
655.354	-289.1
655.549	1740.43
655.745	1769.1
655.941	4107.88
656.136	-618.83
656.332	-2163
656.527	-192.85
656.723	1924.75
656.918	-3000.62
657.114	-434.51
657.309	-409.94
657.505	1334.93
657.7	1848.97
657.896	-1777.98
658.091	-2634.03
658.287	-1626.43
658.482	-3793.18
658.678	-1456.45
658.873	538.27
659.068	3974.77
659.264	-37.2
659.459	36670.59
659.654	1044.12
659.85	2905.73
660.045	-2353.46
660.24	2326.15
660.436	5785.17
660.631	-325.97
660.826	2444.93
661.021	757.41
661.217	2795.14
661.412	-1745.21
661.607	-3615.01
661.802	-65.88
661.997	-768.33
662.192	863.9
662.388	-4198.68
662.583	-356.69
662.778	777.89
662.973	-3496.22
663.168	-4114.71
663.363	-1306.95
663.558	4484.71
663.753	1771.15
663.948	-3461.41
664.143	-2920.74
664.338	534.18
664.533	1490.58
664.728	-332.11
664.923	-1970.49
665.118	433.83
665.313	-2556.21
665.508	1830.54
665.703	1793.68
665.897	1642.13
666.092	650.91
666.287	370.34
666.482	-489.81
666.677	2461.32
666.872	2076.3
667.066	-729.42
667.261	-1368.38
667.456	523.94
667.651	1963.66
667.845	2369.16
668.04	1064.6
668.235	-3012.9
668.429	1502.87
668.624	708.26
668.819	-659.79
669.013	-3174.69
669.208	1207.96
669.402	-2427.18
669.597	272.04
669.792	-1796.41
669.986	3360.38
670.181	-3418.4
670.375	814.75
670.57	-3199.27
670.764	-2511.15
670.959	-69.97
671.153	423.59
671.348	-635.21
671.542	3004.03
671.737	-3406.11
671.931	-4073.75
672.125	626.34
672.32	1455.76
672.514	1687.18
672.709	-2525.49
672.903	-33.11
673.097	-1495.36
673.291	-1464.64
673.486	1853.07
673.68	282.28
673.874	-2603.31
674.069	-1259.84
674.263	1263.26
674.457	1959.56
674.651	1263.26
674.845	-321.87
675.04	4294.25
675.234	-2515.25
675.428	-639.31
675.622	-1620.28
675.816	-3238.18
676.01	-1311.04
676.204	-131.41
676.398	763.55
676.592	-659.79
676.787	-1921.34
676.981	-0.34
677.175	663.2
677.369	-4325.65
677.563	110.25
677.757	-452.94
677.95	-1753.4
678.144	-4174.1
678.338	-1886.52
678.532	1263.26
678.726	-3975.45
678.92	3511.93
679.114	327.33
679.308	358.05
679.502	-4235.54
679.695	-3733.79
679.889	-1560.89
680.083	-3182.88
680.277	-3952.92
680.471	-53.59
680.664	-2990.38
680.858	843.42
681.052	356.01
681.245	-1425.73
681.439	1187.48
681.633	-2646.32
681.826	13.99
682.02	-1128.77
682.214	1240.73
682.407	-2851.11
682.601	-637.26
682.795	-133.46
682.988	-932.17
683.182	-2695.47
683.375	-221.52
683.569	-807.24
683.762	1238.68
683.956	2573.96
684.149	2268.81
684.343	2354.82
684.536	-2783.53
684.73	272.04
684.923	-3875.1
685.116	-3076.39
685.31	2788.99
685.503	1238.68
685.696	159.4
685.89	1701.52
686.083	-3262.76
686.276	-2261.3
686.47	757.41
686.663	-522.57
686.856	-414.03
687.05	1754.77
687.243	-92.5
687.436	1719.95
687.629	2238.09
687.822	749.22
688.016	-700.75
688.209	-1182.02
688.402	937.63
688.595	-223.57
688.788	-3682.59
688.981	-3031.34
689.174	3180.15
689.367	253.61
689.561	-270.67
689.754	-4153.62
689.947	-1208.64
690.14	-221.52
690.333	-4200.73
690.526	-614.73
690.719	2150.03
690.912	2410.12
691.104	769.69
691.297	157.35
691.49	386.72
691.683	-2398.51
691.876	-4231.44
692.069	3149.43
692.262	-137.56
692.455	777.89
692.647	30.38
692.84	-2607.41
693.033	999.07
693.226	892.57
693.419	-1540.41
693.611	-514.38
693.804	439.97
693.997	738.98
694.189	196.26
694.382	-1603.9
694.575	3534.45
694.767	-422.22
694.96	-1945.91
695.153	75.43
695.345	616.1
695.538	2215.56
695.731	949.92
695.923	-391.5
696.116	558.75
696.308	2064.01
696.501	335.53
696.693	2805.38
696.886	-2212.15
697.078	-3215.65
697.271	831.13
697.463	1224.34
697.655	-137.56
697.848	274.09
698.04	-1231.17
698.233	-3838.23
698.425	-1161.54
698.617	1842.83
698.81	-1638.72
699.002	-938.31
699.194	2291.34
699.387	1322.65
699.579	-1245.51
699.771	-3385.63
699.963	-3254.56
700.156	-3287.33
700.348	1588.88
700.54	601.76
700.732	-2244.92
700.924	-1556.8
701.117	-532.81
701.309	-1358.14
701.501	-3316
701.693	4642.4
701.885	-790.86
702.077	1738.38
702.269	714.4
702.461	2336.39
702.653	585.38
702.845	-377.17
703.037	736.93
703.229	2418.31
703.421	-1005.89
703.613	-1966.39
703.805	3958.38
703.997	714.4
704.189	1685.14
704.381	-659.79
704.573	4214.38
704.765	-1823.03
704.957	1996.43
705.148	396.96
705.34	-2134.32
705.532	-176.47
705.724	-1216.83
705.916	-3467.55
706.107	2188.94
706.299	732.83
706.491	2489.99
706.682	1973.9
706.874	-1569.09
707.066	-614.73
707.258	-2279.73
707.449	-123.22
707.641	6344.27
707.832	-59.73
708.024	-395.6
708.216	44.71
708.407	1312.41
708.599	-1249.6
708.79	2467.46
708.982	-2816.3
709.173	-778.57
709.365	-2459.95
709.556	353.96
709.748	97.96
709.939	573.09
710.131	951.96
710.322	-3662.11
710.514	3280.5
710.705	-1605.95
710.896	1003.16
711.088	1011.36
711.279	1064.6
711.47	2453.13
711.662	1701.52
711.853	-1628.48
712.044	-4012.31
712.236	423.59
712.427	63.15
712.618	-4014.36
712.809	-1507.65
713	-1233.22
713.192	1937.04
713.383	-696.65
713.574	868
713.765	188.07
713.956	-2449.71
714.147	2350.73
714.338	-2812.2
714.53	2240.14
714.721	2852.48
714.912	-1241.41
715.103	-3678.49
715.294	1103.51
715.485	1957.52
715.676	-3852.57
715.867	-4256.02
716.058	-1380.67
716.249	1967.76
716.44	128.68
716.63	-2812.2
716.821	-438.61
717.012	1883.79
717.203	-1538.37
717.394	-803.15
717.585	-3365.15
717.776	-2068.79
717.966	-1225.03
718.157	-1962.3
718.348	878.24
718.539	-69.97
718.73	1621.65
718.92	2780.8
719.111	-2185.52
719.302	773.79
719.492	-883.02
719.683	1300.12
719.874	-2392.37
720.064	4677.22
720.255	-3604.77
720.446	57
720.636	2141.83
720.827	1885.84
721.017	1068.7
721.208	-321.87
721.398	-1925.43
721.589	1318.55
721.779	849.57
721.97	-4358.42
722.16	-3096.87
722.351	-3260.71
722.541	-774.47
722.732	1738.38
722.922	1498.77
723.112	2453.13
723.303	-2693.42
723.493	-1769.79
723.683	1597.07
723.874	2709.12
724.064	962.2
724.254	2344.58
724.445	-2206
724.635	2795.14
724.825	-4071.7
725.015	-647.5
725.206	-1474.88
725.396	1945.23
725.586	-1999.16
725.776	1437.33
725.966	4157.04
726.157	1703.57
726.347	2483.84
726.537	124.58
726.727	2555.52
726.917	-2814.25
727.107	-930.12
727.297	-4098.33
727.487	2467.46
727.677	-2435.38
727.867	612
728.057	-29.01
728.247	693.92
728.437	1162.9
728.627	-586.06
728.817	-954.69
729.007	929.44
729.197	1130.14
729.387	-270.67
729.576	-168.27
729.766	2131.59
729.956	-821.58
730.146	-753.99
730.336	-3588.38
730.525	-276.82
730.715	-2734.38
730.905	523.94
731.095	-778.57
731.284	1324.69
731.474	2242.18
731.664	-481.61
731.853	-3942.68
732.043	-2623.79
732.233	-3463.46
732.422	1769.1
732.612	-2511.15
732.802	843.42
732.991	376.48
733.181	-4047.13
733.37	-2904.36
733.56	-1050.95
733.749	1308.31
733.939	-3563.81
734.128	1539.73
734.318	3135.1
734.507	-1974.58
734.697	-3885.34
734.886	2029.2
735.076	-3088.68
735.265	2360.97
735.454	890.53
735.644	-3297.57
735.833	-2646.32
736.022	-526.67
736.212	-874.82
736.401	-541.01
736.59	1728.14
736.779	-1618.24
736.969	-3496.22
737.158	499.36
737.347	-2826.54
737.536	-563.53
737.726	-1845.56
737.915	1613.46
738.104	1271.45
738.293	-2113.85
738.482	540.32
738.671	-2105.65
738.86	-3320.1
739.049	1369.75
739.238	-1442.11
739.427	-842.06
739.616	-3334.43
739.806	-3330.34
739.995	-4241.68
740.183	-3805.47
740.372	339.62
740.561	-1634.62
740.75	-4143.38
740.939	632.48
741.128	700.06
741.317	1513.11
741.506	-1016.13
741.695	607.91
741.884	1453.72
742.072	2078.35
742.261	163.5
742.45	-414.03
742.639	945.82
742.828	812.7
743.016	-602.44
743.205	-3113.25
743.394	-2847.02
743.582	2072.2
743.771	482.98
743.96	1128.09
744.148	474.79
744.337	345.77
744.526	939.68
744.714	-1016.13
744.903	4644.45
745.091	-225.62
745.28	2522.76
745.468	1539.73
745.657	1228.44
745.845	974.49
746.034	-223.57
746.222	753.31
746.411	1040.03
746.599	1638.03
746.788	1291.93
746.976	-719.18
747.165	536.23
747.353	1126.04
747.541	5324.38
747.73	-2695.47
747.918	2868.86
748.106	2193.03
748.295	2930.3
748.483	1930.89
748.671	1621.65
748.859	1697.42
749.048	3356.28
749.236	1296.02
749.424	824.99
749.612	3239.55
749.8	1275.54
749.989	1371.8
750.177	2158.22
750.365	2723.46
750.553	2752.13
750.741	-573.77
750.929	5813.84
751.117	1572.5
751.305	2436.74
751.493	1306.26
751.681	175.78
751.869	1887.89
752.057	3198.59
752.245	1535.64
752.433	3581.56
752.621	2430.6
752.809	3675.76
752.997	3389.05
753.185	3020.41
753.373	2231.94
753.56	2006.67
753.748	3473.01
753.936	2209.42
754.124	3141.24
754.312	1894.03
754.499	5004.89
754.687	3567.22
754.875	4122.22
755.063	2025.1
755.25	3939.95
755.438	4734.56
755.626	3896.94
755.813	1529.49
756.001	4044.4
756.189	1650.32
756.376	2246.28
756.564	2979.45
756.751	5162.59
756.939	1564.31
757.127	5244.51
757.314	2817.66
757.502	1584.79
757.689	4808.29
757.877	4099.69
758.064	4154.99
758.251	1992.33
758.439	4341.35
758.626	5461.59
758.814	2207.37
759.001	5066.33
759.188	5068.38
759.376	843.42
759.563	4378.22
759.75	4482.66
759.938	2547.33
760.125	2641.54
760.312	3206.78
760.5	2936.45
760.687	4150.89
760.874	2166.41
761.061	4310.63
761.248	798.37
761.436	6975.04
761.623	2936.45
761.81	3761.78
761.997	4464.23
762.184	2666.11
762.371	2649.73
762.558	2961.02
762.745	5082.72
762.932	3341.94
763.119	3933.81
763.306	3407.48
763.493	3733.11
763.68	3831.41
763.867	5238.36
764.054	1982.09
764.241	2772.61
764.428	5207.64
764.615	3495.54
764.802	3380.86
764.989	2432.65
765.176	3556.98
765.362	4660.84
765.549	2678.4
765.736	10669.58
765.923	5279.32
766.11	5058.14
766.296	3366.52
766.483	962.2
766.67	3597.94
766.857	4591.2
767.043	2469.51
767.23	3892.85
767.417	5201.5
767.603	4384.36
767.79	3118.72
767.976	6041.17
768.163	5631.57
768.35	4533.86
768.536	3237.5
768.723	3171.96
768.909	5291.61
769.096	6039.12
769.282	3624.56
769.469	3131
769.655	6352.46
769.842	4304.49
770.028	2238.09
770.214	3886.7
770.401	3923.57
770.587	3126.91
770.774	1072.79
770.96	845.47
771.146	4214.38
771.333	4507.24
771.519	3200.63
771.705	4038.25
771.891	2684.55
772.078	8594.98
772.264	5029.47
772.45	3419.77
772.636	3964.53
772.822	3362.42
773.009	7163.45
773.195	4525.67
773.381	4386.41
773.567	5107.29
773.753	3047.04
773.939	2111.11
774.125	2076.3
774.311	3950.19
774.497	2377.35
774.683	3245.69
774.869	5520.98
775.055	7194.17
775.241	3030.65
775.427	4492.9
775.613	3114.62
775.799	6032.97
775.985	2920.06
776.171	4146.8
776.357	4310.63
776.543	4148.84
776.729	3335.8
776.914	4273.77
777.1	5492.31
777.286	7831.09
777.472	4081.26
777.657	3673.71
777.843	6993.47
778.029	7149.12
778.215	5031.52
778.4	4435.56
778.586	7353.91
778.772	6069.84
778.957	5467.74
779.143	3282.55
779.329	4335.21
779.514	3341.94
779.7	4611.68
779.885	2453.13
780.071	4992.61
780.256	5348.95
780.442	4587.11
780.627	2541.19
780.813	5752.4
780.998	6757.96
781.184	5627.48
781.369	3217.02
781.555	6078.03
781.74	4476.52
781.925	6911.55
782.111	4105.84
782.296	4773.47
782.481	5340.76
782.667	5152.35
782.852	6291.02
783.037	4677.22
783.223	4550.25
783.408	4773.47
783.593	6151.76
783.778	4025.97
783.963	5682.77
784.149	6186.57
784.334	4746.85
784.519	5389.91
784.704	3853.94
784.889	5463.64
785.074	4052.59
785.259	5039.71
785.444	7818.8
785.629	3845.74
785.814	3186.3
785.999	5043.81
786.184	8386.09
786.369	4941.41
786.554	3444.34
786.739	7132.73
786.924	6438.47
787.109	6057.55
787.294	7601.72
787.479	7548.47
787.664	6487.62
787.849	7781.94
788.034	7796.28
788.218	8287.79
788.403	7714.36
788.588	9451.03
788.773	8887.84
788.957	8162.86
789.142	11044.35
789.327	10673.67
789.512	10542.6
789.696	14460.37
789.881	15640
790.066	12883.43
790.25	16285.11
790.435	14243.28
790.619	16688.56
790.804	16594.35
790.989	16049.59
791.173	19688.83
791.358	18369.94
791.542	16973.22
791.727	17847.71
791.911	18335.12
792.096	17702.3
792.28	18689.42
792.465	18691.47
792.649	19166.6
792.833	20491.63
793.018	19451.27
793.202	20974.95
793.386	23010.64
793.571	21794.14
793.755	21085.54
793.939	19645.82
794.124	20553.07
794.308	21280.1
794.492	20368.76
794.676	19809.66
794.861	20508.02
795.045	21933.4
795.229	18527.63
795.413	21167.46
795.597	19699.07
795.781	19787.13
795.966	22218.07
796.15	19160.45
796.334	22969.68
796.518	20555.12
796.702	17005.99
796.886	18036.12
797.07	19404.16
797.254	17991.06
797.438	15717.82
797.622	15314.37
797.806	15398.34
797.99	16299.44
798.174	14781.9
798.358	16094.65
798.541	15943.1
798.725	16420.27
798.909	13755.86
799.093	13762.01
799.277	13477.34
799.461	14519.76
799.644	9762.33
799.828	12430.83
800.012	14738.89
800.196	11922.93
800.379	11869.69
800.563	10243.6
800.747	13630.94
800.93	11111.94
801.114	11025.92
801.298	10305.04
801.481	13798.87
801.665	13071.84
801.848	9555.48
802.032	10677.77
802.216	14400.97
802.399	10694.15
802.583	9457.18
802.766	8570.41
802.95	11277.82
803.133	12576.23
803.317	9135.65
803.5	8777.25
803.683	10847.75
803.867	8779.3
804.05	11537.91
804.233	12420.59
804.417	12858.85
804.6	9844.24
804.783	10991.11
804.967	12242.42
805.15	10798.6
805.333	10257.93
805.517	10673.67
805.7	8644.13
805.883	9838.1
806.066	11226.62
806.249	11623.93
806.432	8242.73
806.616	10061.33
806.799	7964.21
806.982	8814.12
807.165	10022.42
807.348	9856.53
807.531	8562.22
807.714	8906.27
807.897	9932.31
808.08	10266.13
808.263	10694.15
808.446	10366.48
808.629	9588.25
808.812	8662.57
808.995	9176.61
809.178	11247.1
809.361	10595.85
809.544	10696.2
809.726	11863.54
809.909	10632.71
810.092	10284.56
810.275	10415.63
810.458	12252.66
810.64	10620.42
810.823	10018.32
811.006	9395.74
811.189	11542.01
811.371	8015.41
811.554	9125.41
811.737	10415.63
811.919	10614.28
812.102	8558.12
812.285	6938.18
812.467	9934.36
812.65	8764.96
812.832	8212.01
813.015	10647.05
813.197	10464.78
813.38	10505.74
813.562	11257.34
813.745	7564.86
813.927	7224.89
814.11	10225.17
814.292	8615.46
814.475	7439.93
814.657	8400.43
814.839	9778.71
815.022	7654.97
815.204	11800.05
815.386	11357.69
815.569	10356.24
815.751	6803.01
815.933	9956.88
816.116	10188.3
816.298	10284.56
816.48	8355.37
816.662	7708.21
816.844	9047.58
817.027	9018.91
817.209	8109.61
817.391	7521.85
817.573	8271.4
817.755	8412.71
817.937	9023.01
818.119	7888.43
818.301	7906.87
818.483	8400.43
818.665	7661.11
818.847	9506.33
819.029	8877.6
819.211	6706.76
819.393	8574.5
819.575	11073.03
819.757	10343.95
819.939	9096.74
820.121	8248.88
820.303	8527.4
820.485	11320.83
820.666	10984.96
820.848	10960.39
821.03	8060.46
821.212	9903.64
821.394	6047.31
821.575	8498.73
821.757	10092.05
821.939	8349.23
822.121	8601.13
822.302	11054.59
822.484	9213.47
822.666	5578.33
822.847	7302.72
823.029	5023.33
823.21	9113.12
823.392	5756.5
823.573	7450.17
823.755	6331.98
823.937	6176.33
824.118	6645.32
824.3	12510.7
824.481	6544.97
824.662	6598.21
824.844	7159.36
825.025	8582.7
825.207	5611.09
825.388	7124.54
825.569	5942.86
825.751	6544.97
825.932	9768.47
826.113	5424.73
826.295	8390.19
826.476	7857.71
826.657	7167.55
826.839	6524.49
827.02	7894.58
827.201	10219.02
827.382	6784.58
827.563	7935.54
827.744	6358.6
827.926	7482.94
828.107	8990.24
828.288	5336.67
828.469	7423.55
828.65	7939.63
828.831	4683.36
829.012	6651.46
829.193	8625.7
829.374	5975.63
829.555	9092.64
829.736	11892.21
829.917	9608.73
830.098	7941.68
830.279	4302.44
830.46	5365.34
830.641	6555.21
830.822	6516.3
831.002	8121.9
831.183	5580.37
831.364	7509.56
831.545	7349.82
831.726	6338.12
831.906	6100.56
832.087	7591.48
832.268	6919.75
832.449	8085.04
832.629	4171.37
832.81	5271.13
832.991	5154.4
833.171	6843.97
833.352	6417.99
833.532	7773.75
833.713	5371.48
833.894	5703.25
834.074	3729.01
834.255	5037.66
834.435	4910.69
834.616	5107.29
834.796	5201.5
834.977	6891.07
835.157	8902.18
835.338	4746.85
835.518	3800.69
835.698	5690.96
835.879	4490.85
836.059	5740.12
836.239	5865.04
836.42	5508.69
836.6	5971.54
836.78	3362.42
836.961	4540.01
837.141	6829.63
837.321	4042.35
837.501	8912.42
837.682	4398.7
837.862	5170.78
838.042	10929.67
838.222	4548.2
838.402	4918.88
838.582	5109.34
838.763	5762.64
838.943	4664.93
839.123	7134.78
839.303	5529.17
839.483	6622.79
839.663	2696.83
839.843	15463.87
840.023	6952.51
840.203	6639.17
840.383	4656.74
840.563	4511.33
840.742	5150.3
840.922	4154.99
841.102	5967.44
841.282	4916.83
841.462	5109.34
841.642	4525.67
841.822	3468.92
842.001	2457.22
842.181	5641.81
842.361	5725.78
842.541	6575.69
842.72	5652.05
842.9	4654.69
843.08	5107.29
843.259	4464.23
843.439	4523.62
843.619	3942
843.798	4877.92
843.978	5987.92
844.157	4054.64
844.337	5975.63
844.517	3933.81
844.696	7208.51
844.876	5899.86
845.055	3397.24
845.235	5797.46
845.414	4925.02
845.593	3137.15
845.773	3837.55
845.952	2170.51
846.132	2786.94
846.311	3122.81
846.49	5207.64
846.67	5484.12
846.849	3763.83
847.028	2995.84
847.208	5537.37
847.387	3452.53
847.566	7290.43
847.745	3444.34
847.924	5480.02
848.104	5484.12
848.283	5389.91
848.462	6114.89
848.641	6508.1
848.82	4511.33
848.999	7042.62
849.178	4017.77
849.358	5856.85
849.537	4628.07
849.716	3739.25
849.895	3038.84
850.074	6405.7
850.253	6635.08
850.432	4712.03
850.61	4415.08
850.789	4013.68
850.968	6622.79
851.147	6432.33
851.326	3489.4
851.505	4652.64
851.684	4931.17
851.863	6155.85
852.041	4746.85
852.22	4200.04
852.399	3612.28
852.578	5402.2
852.756	2584.2
852.935	4073.07
853.114	6288.97
853.293	2956.93
853.471	7507.51
853.65	5013.09
853.828	3942
854.007	3225.21
854.186	4939.36
854.364	6217.29
854.543	5033.57
854.721	3874.42
854.9	5543.51
855.078	6717
855.257	3681.91
855.435	1509.01
855.614	4998.75
855.792	3888.75
855.971	3919.47
856.149	2594.44
856.327	5330.52
856.506	4601.44
856.684	3591.8
856.862	3255.93
857.041	1226.39
857.219	6041.17
857.397	3341.94
857.576	3653.23
857.754	3606.13
857.932	5588.57
858.11	4058.73
858.288	4005.49
858.467	2270.86
858.645	2528.9
858.823	3747.44
859.001	4714.08
859.179	2799.23
859.357	3419.77
859.535	5146.2
859.713	5713.49
859.891	5162.59
860.069	7939.63
860.247	3589.75
860.425	2049.68
860.603	4929.12
860.781	6315.59
860.959	4595.3
861.137	2059.92
861.315	2889.34
861.493	4513.38
861.67	5877.33
861.848	5604.95
862.026	3509.88
862.204	3348.09
862.382	3825.26
862.559	3866.22
862.737	5121.63
862.915	5555.8
863.093	3901.04
863.27	5840.47
863.448	5647.96
863.626	4361.83
863.803	3855.98
863.981	2991.74
864.158	1695.38
864.336	3288.7
864.514	2811.52
864.691	2145.93
864.869	2961.02
865.046	2649.73
865.224	4083.31
865.401	5455.45
865.578	2975.36
865.756	6282.83
865.933	1506.96
866.111	5498.45
866.288	2764.42
866.465	3456.63
866.643	2383.49
866.82	3143.29
866.997	3233.4
867.175	3577.46
867.352	3126.91
867.529	1216.15
867.706	2680.45
867.884	3923.57
868.061	3604.08
868.238	2936.45
868.415	2297.48
868.592	2743.94
868.77	2911.87
868.947	4974.17
869.124	3036.8
869.301	1627.79
869.478	3913.33
869.655	732.83
869.832	3618.42
870.009	6401.61
870.186	6207.05
870.363	3911.28
870.54	3792.5
870.717	3292.79
870.894	3374.71
871.071	4320.87
871.247	1828.49
871.424	2588.29
871.601	3346.04
871.778	2528.9
871.955	3341.94
872.132	3935.85
872.308	3571.32
872.485	3460.73
872.662	2805.38
872.839	5443.16
873.015	2580.1
873.192	3905.14
873.369	3038.84
873.545	2811.52
873.722	3290.74
873.898	3397.24
874.075	2682.5
874.252	3733.11
874.428	3126.91
874.605	3401.33
874.781	700.06
874.958	2303.62
875.134	4200.04
875.311	3968.62
875.487	3931.76
875.663	5629.52
875.84	3399.29
876.016	4427.37
876.193	3942
876.369	2467.46
876.545	2360.97
876.722	2129.55
876.898	3317.37
877.074	3710.58
877.25	4384.36
877.427	8957.47
877.603	2819.71
877.779	2797.18
877.955	3143.29
878.132	5283.42
878.308	4650.6
878.484	6364.75
878.66	1795.73
878.836	3446.39
879.012	3184.25
879.188	3792.5
879.364	3255.93
879.54	2739.84
879.716	1656.47
879.892	3325.56
880.068	4785.76
880.244	6641.22
880.42	2113.16
880.596	2778.75
880.772	2492.04
880.948	2281.1
881.124	4011.63
881.3	7773.75
881.475	2952.83
881.651	2991.74
881.827	2715.27
882.003	2895.49
882.178	988.83
882.354	2707.07
882.53	2199.18
882.706	3153.53
882.881	3653.23
883.057	1656.47
883.233	3006.08
883.408	4779.62
883.584	2315.91
883.759	1556.11
883.935	1371.8
884.111	1293.97
884.286	2604.67
884.462	878.24
884.637	2377.35
884.813	1392.28
884.988	2821.76
885.164	6170.19
885.339	1752.72
885.514	4648.55
885.69	2023.05
885.865	1173.14
886.04	3722.87
886.216	2334.34
886.391	3915.37
886.566	2944.64
886.742	1033.88
886.917	3028.6
887.092	5269.08
887.267	1255.06
887.443	710.3
887.618	2012.81
887.793	2098.83
887.968	3276.41
888.143	1263.26
888.318	2772.61
888.494	3866.22
888.669	2928.25
888.844	2911.87
889.019	2461.32
889.194	2479.75
889.369	1869.45
889.544	2154.12
889.719	4128.36
889.894	5275.23
890.069	3538.55
890.243	3753.59
890.418	2434.69
890.593	1810.06
890.768	2924.16
890.943	4677.22
891.118	2522.76
891.293	3006.08
891.467	1851.02
891.642	5885.52
891.817	2371.21
891.992	3298.94
892.166	1900.17
892.341	4386.41
892.516	2860.67
892.69	3280.5
892.865	927.39
893.04	2600.58
893.214	4339.3
893.389	3700.34
893.563	5858.9
893.738	6129.23
893.912	2186.89
894.087	3106.43
894.261	4300.39
894.436	1943.18
894.61	5533.27
894.785	3155.58
894.959	3034.75
895.134	4849.25
895.308	1621.65
895.482	3944.05
895.657	1824.4
895.831	2047.63
896.005	8623.66
896.18	2354.82
896.354	3120.76
896.528	861.85
896.702	2928.25
896.877	4869.73
897.051	1250.97
897.225	3307.13
897.399	3370.62
897.573	2070.16
897.747	3171.96
897.922	2686.59
898.096	4587.11
898.27	1461.91
898.444	2084.49
898.618	3221.11
898.792	2725.51
898.966	2928.25
899.14	3688.05
899.314	3559.03
899.488	4738.66
899.662	2768.51
899.835	2877.05
900.009	2760.32
900.183	970.4
900.357	5799.51
900.531	1447.57
900.705	1398.42
900.878	282.28
901.052	1259.16
901.226	3075.71
901.4	2743.94
901.573	1177.24
901.747	339.62
901.921	1678.99
902.095	2168.46
902.268	3612.28
902.442	206.5
902.615	-713.03
902.789	2979.45
902.963	7140.93
903.136	1132.19
903.31	3702.39
903.483	-231.76
903.657	2977.41
903.83	1478.29
904.004	-3047.72
904.177	1132.19
904.35	614.05
904.524	-3293.48
904.697	1179.29
904.871	1199.77
905.044	2266.76
905.217	5709.4
905.391	4071.02
905.564	1765.01
905.737	1314.45
905.91	114.34
906.084	-3266.85
906.257	1293.97
906.43	-3412.26
906.603	564.9
906.776	-4282.64
906.949	-1335.62
907.123	-2119.99
907.296	-633.16
907.469	2737.79
907.642	-434.51
907.815	2006.67
907.988	-22.87
908.161	-610.64
908.334	-1759.55
908.507	1470.1
908.68	992.92
908.853	575.14
909.026	-512.33
909.199	-414.03
909.371	2770.56
909.544	2037.39
909.717	429.73
909.89	-2296.11
910.063	-2808.11
910.236	489.12
910.408	804.51
910.581	-3467.55
910.754	-3645.73
910.927	-4190.49
911.099	589.47
911.272	1064.6
911.445	257.7
911.617	-119.12
911.79	2412.17
911.962	-188.75
912.135	-2046.26
912.308	548.51
912.48	-3299.62
912.653	-2324.79
912.825	-1814.84
912.998	-233.81
913.17	1750.67
913.343	2098.83
913.515	-1325.38
913.687	-2328.88
913.86	550.56
914.032	2219.66
914.205	-708.94
914.377	380.58
914.549	-4237.59
914.721	1115.8
914.894	-3160.36
915.066	-84.31
915.238	-2969.9
915.41	2510.47
915.583	478.88
915.755	-2640.17
915.927	448.16
916.099	1590.93
916.271	-1456.45
916.443	-3076.39
916.616	-3889.43
916.788	22095.19
916.96	2952.83
917.132	-4235.54
917.304	315.05
917.476	2197.13
917.648	550.56
917.82	-4079.9
917.992	1547.92
918.164	1402.52
918.335	564.9
918.507	1765.01
918.679	-4077.85
918.851	2195.08
919.023	-846.15
919.195	548.51
919.366	-3838.23
919.538	-3608.86
919.71	-2869.55
919.882	-1917.24
920.053	-3137.83
920.225	-2324.79
920.397	1879.69
920.568	-2781.48
920.74	-1800.51
920.912	-1868.09
921.083	-3305.76
921.255	-3166.5
921.426	-3668.25
921.598	104.11
921.77	-2244.92
921.941	-3131.69
922.113	-3232.04
922.284	1822.35
922.455	-2617.65
922.627	-3729.69
922.798	-3543.33
922.97	-2904.36
923.141	-3029.29
923.312	-4086.04
923.484	1146.52
923.655	-3631.39
923.826	1248.92
923.998	-1122.63
924.169	1310.36
924.34	-3000.62
924.511	73.39
924.683	57
924.854	-2070.84
925.025	-72.02
925.196	1246.87
925.367	1330.84
925.538	464.55
925.709	-123.22
925.881	878.24
926.052	-1724.73
926.223	-870.73
926.394	1429.14
926.565	-2183.48
926.736	-4251.92
926.907	-3299.62
927.078	290.47
927.248	4398.7
927.419	1146.52
927.59	-4245.78
927.761	1398.42
927.932	1248.92
928.103	-59.73
928.274	-2007.35
928.444	-520.53
928.615	-2773.29
928.786	-1628.48
928.957	-3789.08
929.127	-2332.98
929.298	337.57
929.469	-1622.33
929.639	-469.33
929.81	-272.72
929.981	-35.16
930.151	667.3
930.322	3915.37
930.492	1003.16
930.663	3708.53
930.833	-2427.18
931.004	-43.35
931.174	851.61
931.345	155.3
931.515	-2847.02
931.686	-39.25
931.856	2541.19
932.027	-3629.34
932.197	1457.81
932.367	-2951.46
932.538	1769.1
932.708	-2703.66
932.878	339.62
933.048	-749.9
933.219	-2064.69
933.389	2199.18
933.559	-2105.65
933.729	-3305.76
933.9	626.34
934.07	-3610.91
934.24	-3789.08
934.41	544.42
934.58	132.78
934.75	1158.81
934.92	-4174.1
935.09	655.01
935.26	-2312.5
935.43	2848.38
935.6	-639.31
935.77	636.58
935.94	618.15
936.11	-2736.43
936.28	-2244.92
936.45	1476.24
936.62	378.53
936.79	726.69
936.96	-262.48
937.129	-1069.38
937.299	388.77
937.469	-127.32
937.639	308.9
937.808	-1071.43
937.978	-3555.62
938.148	1869.45
938.317	462.5
938.487	769.69
938.657	-3017
938.826	-3307.81
938.996	-352.59
939.166	-4223.25
939.335	-3592.48
939.505	118.44
939.674	-1524.03
939.844	-3451.17
940.013	597.67
940.183	-3653.92
940.352	-3217.7
940.522	-479.57
940.691	-2044.21
940.86	929.44
941.03	-827.72
941.199	444.07
941.368	818.85
941.538	1695.38
941.707	-3119.4
941.876	-532.81
942.046	1373.85
942.215	-139.6
942.384	-3514.66
942.553	-209.23
942.722	-952.65
942.892	2115.21
943.061	-4194.58
943.23	888.48
943.399	4066.92
943.568	-1145.16
943.737	2446.98
943.906	308.9
944.075	-2900.27
944.244	1713.81
944.413	-639.31
944.582	-4249.88
944.751	431.78
944.92	-1020.23
945.089	1154.71
945.258	-751.95
945.427	-616.78
945.596	-987.46
945.764	-135.51
945.933	-1751.35
946.102	1515.16
946.271	-1601.85
946.44	-557.39
946.608	-2253.11
946.777	-1818.94
946.946	-530.77
947.114	2543.24
947.283	-751.95
947.452	-3117.35
947.62	-2500.91
947.789	1461.91
947.958	-1726.78
948.126	650.91
948.295	315.05
948.463	-985.41
948.632	-1466.69
948.8	-1296.71
948.969	-3305.76
949.137	-545.1
949.305	-3066.15
949.474	1410.71
949.642	921.24
949.811	966.3
949.979	-96.6
950.147	-3416.35
950.316	-3537.18
950.484	-3764.51
950.652	-2462
950.82	1924.75
950.989	-3836.19
951.157	-2492.72
951.325	-3731.74
951.493	1588.88
951.661	1109.66
951.83	1255.06
951.998	-4174.1
952.166	-1540.41
952.334	-3373.35
952.502	3368.57
952.67	1480.34
952.838	966.3
953.006	2979.45
953.174	681.63
953.342	657.06
953.51	-196.95
953.678	-1202.5
953.846	-4163.86
954.014	130.73
954.181	2666.11
954.349	-3051.81
954.517	-3008.81
954.685	-3490.08
954.853	-2343.22
955.02	-3508.51
955.188	-3631.39
955.356	-2238.77
955.524	1613.46
955.691	-1349.95
955.859	-2908.46
956.027	-379.22
956.194	3214.97
956.362	-2046.26
956.529	1181.34
956.697	-1378.62
956.865	634.53
957.032	1951.37
957.2	-3488.03
957.367	-3830.04
957.535	843.42
957.702	1244.82
957.87	-3526.94
958.037	681.63
958.204	-2375.99
958.372	1265.3
958.539	597.67
958.706	-252.24
958.874	3659.38
959.041	886.43
959.208	-3297.57
959.376	-2146.61
959.543	1552.02
959.71	-270.67
959.877	1676.95
960.044	18.09
960.212	3174.01
960.379	3538.55
960.546	685.73
960.713	-4178.2
960.88	-946.5
961.047	163.5
961.214	24778.03
961.381	2795.14
961.548	-1825.08
961.715	-610.64
961.882	-3813.66
962.049	-870.73
962.216	-1102.15
962.383	-3021.1
962.55	-835.91
962.717	1973.9
962.883	1175.19
963.05	3032.7
963.217	1062.55
963.384	-2033.97
963.551	-520.53
963.717	-3012.9
963.884	450.21
964.051	1007.26
964.218	1816.21
964.384	6030.93
964.551	-3150.12
964.717	-4202.77
964.884	-1012.04
965.051	-3191.08
965.217	-3576.09
965.384	-4200.73
965.55	1625.75
965.717	1322.65
965.883	521.89
966.05	-2388.27
966.216	2555.52
966.383	1302.17
966.549	566.95
966.716	-993.61
966.882	-3281.19
967.048	-2629.93
967.215	-3889.43
967.381	-1845.56
967.547	2320.01
967.713	2756.22
967.88	1197.72
968.046	-4040.98
968.212	-1773.88
968.378	1433.24
968.545	-3909.91
968.711	1613.46
968.877	-993.61
969.043	20.14
969.209	-3221.8
969.375	1586.83
969.541	2571.91
969.707	3198.59
969.873	1717.9
970.039	-557.39
970.205	2274.95
970.371	5262.94
970.537	2270.86
970.703	732.83
970.869	-1345.86
971.035	2311.82
971.201	626.34
971.367	-2818.35
971.532	-739.66
971.698	-1370.43
971.864	1906.32
972.03	-3541.28
972.195	-2535.73
972.361	2414.21
972.527	-1718.59
972.693	3612.28
972.858	2031.24
973.024	-3477.79
973.19	-86.36
973.355	562.85
973.521	1179.29
973.686	1949.32
973.852	-4065.56
974.017	4707.94
974.183	-3586.33
974.348	949.92
974.514	-3899.67
974.679	202.41
974.845	-2769.2
975.01	-1075.52
975.175	-4149.53
975.341	18685.33
975.506	-76.12
975.672	800.41
975.837	4232.81
976.002	298.66
976.167	-1501.5
976.333	5281.37
976.498	-872.78
976.663	-3219.75
976.828	1515.16
976.993	-2218.29
977.159	724.64
977.324	978.59
977.489	3473.01
977.654	-256.34
977.819	-1227.07
977.984	-270.67
978.149	3372.66
978.314	1754.77
978.479	-1352
978.644	-3465.5
978.809	-1153.35
978.974	-3313.95
979.139	2659.97
979.304	435.88
979.469	-1714.49
979.633	-1562.94
979.798	-131.41
979.963	-2640.17
980.128	3442.29
980.293	-3574.05
980.457	-2130.23
980.622	-4024.6
980.787	-3287.33
980.951	-385.36
981.116	22.19
981.281	-3133.73
981.445	-59.73
981.61	1242.78
981.775	-2472.24
981.939	-4315.41
982.104	2588.29
982.268	1769.1
982.433	1898.13
982.597	-2697.52
982.762	3343.99
982.926	1205.91
983.091	-751.95
983.255	-4004.12
983.419	-3203.36
983.584	2213.51
983.748	417.44
983.912	114.34
984.077	2514.56
984.241	2610.82
984.405	-3133.73
984.57	2502.28
984.734	-262.48
984.898	-282.96
985.062	-1515.84
985.226	-2640.17
985.39	3165.82
985.555	32.43
985.719	2725.51
985.883	667.3
986.047	-2240.82
986.211	1201.82
986.375	532.13
986.539	-2308.4
986.703	-2332.98
986.867	-55.64
987.031	990.88
987.195	-1960.25
987.359	-2873.64
987.523	505.51
987.686	-3512.61
987.85	-3379.49
988.014	962.2
988.178	-2447.66
988.342	1275.54
988.506	958.11
988.669	-158.03
988.833	712.35
988.997	1140.38
989.16	-389.46
989.324	102.06
989.488	3337.85
989.651	577.19
989.815	3792.5
989.979	-1198.4
990.142	466.6
990.306	-207.19
990.469	-3434.78
990.633	1588.88
990.796	2623.11
990.96	-549.2
991.123	632.48
991.286	2131.59
991.45	1461.91
991.613	-2695.47
991.777	-3813.66
991.94	-3592.48
992.103	1099.42
992.267	3208.83
992.43	-1204.55
992.593	1056.41
992.756	1115.8
992.92	1089.18
993.083	1199.77
993.246	183.98
993.409	-3805.47
993.572	-3488.03
993.735	-352.59
993.899	859.81
994.062	-577.87
994.225	-962.89
994.388	761.5
994.551	3047.04
994.714	-358.74
994.877	-297.3
995.04	-3096.87
995.203	-2328.88
995.366	1916.56
995.528	-2062.65
995.691	1492.63
995.854	-2533.68
996.017	-1495.36
996.18	-3893.53
996.343	-442.7
996.505	2344.58
996.668	1003.16
996.831	-141.65
996.994	-598.35
997.156	-127.32
997.319	-2801.96
997.482	1894.03
997.644	-3043.62
997.807	1748.62
997.97	-3592.48
998.132	-1524.03
998.295	1797.78
998.457	781.98
998.62	-2337.07
998.782	-2337.07
998.945	614.05
999.107	286.37
999.27	87.72
999.432	-655.69
999.594	1091.23
999.757	2551.43
999.919	612
1000.081	-3637.53
1000.244	-51.54
1000.406	179.88
1000.568	-117.08
1000.731	2393.73
1000.893	2021
1001.055	1955.47
1001.217	-1200.45
1001.379	-3856.67
1001.542	-2375.99
1001.704	3612.28
1001.866	-1462.59
1002.028	1447.57
1002.19	843.42
1002.352	-1573.18
1002.514	-2976.04
1002.676	6037.07
1002.838	2227.85
1003	-336.21
1003.162	-2539.82
1003.324	2606.72
1003.486	1754.77
1003.648	-1458.5
1003.809	-1067.33
1003.971	1621.65
1004.133	89.77
1004.295	20.14
1004.457	-581.96
1004.618	1244.82
1004.78	646.82
1004.942	4185.71
1005.104	13.99
1005.265	-1925.43
1005.427	1486.48
1005.589	-725.32
1005.75	786.08
1005.912	2375.3
1006.073	2504.32
1006.235	841.37
1006.396	-516.43
1006.558	274.09
1006.72	186.02
1006.881	872.09
1007.042	-2519.34
1007.204	-3098.92
1007.365	-2124.08
1007.527	1642.13
1007.688	3567.22
1007.849	433.83
1008.011	93.87
1008.172	972.44
1008.333	1197.72
1008.495	73.39
1008.656	-3715.36
1008.817	1627.79
1008.978	2942.59
1009.139	-153.94
1009.301	1121.95
1009.462	-3719.45
1009.623	1572.5
1009.784	-1698.11
1009.945	685.73
1010.106	1379.99
1010.267	454.31
1010.428	-1907
1010.589	-3838.23
1010.75	628.39
1010.911	-2404.66
1011.072	-3891.48
1011.233	1390.23
1011.394	-246.1
1011.555	501.41
1011.716	1056.41
1011.877	-2378.03
1012.037	730.78
1012.198	-2648.36
1012.359	986.78
1012.52	-2582.83
1012.68	-256.34
1012.841	302.76
1013.002	759.46
1013.163	-1227.07
1013.323	775.84
1013.484	-3600.67
1013.644	-1825.08
1013.805	1138.33
1013.966	-368.98
1014.126	3210.87
1014.287	-543.05
1014.447	-166.23
1014.608	2098.83
1014.768	-2791.72
1014.929	1584.79
1015.089	-2412.85
1015.249	837.28
1015.41	214.7
1015.57	1558.16
1015.731	-3830.04
1015.891	-489.81
1016.051	1019.55
1016.211	-164.18
1016.372	2027.15
1016.532	-649.55
1016.692	-475.47
1016.852	1107.61
1017.013	-905.54
1017.173	124.58
1017.333	-2228.53
1017.493	-688.46
1017.653	-2689.32
1017.813	-3504.42
1017.973	-184.66
1018.133	-2337.07
1018.293	-3580.19
1018.453	-39.25
1018.613	-3653.92
1018.773	2645.63
1018.933	11.95
1019.093	1482.39
1019.253	136.87
1019.413	1599.12
1019.573	-3959.06
1019.733	-121.17
1019.892	2633.35
1020.052	-149.84
1020.212	980.64
1020.372	679.58
1020.531	2027.15
1020.691	323.24
1020.851	802.46
1021.01	614.05
1021.17	687.78
1021.33	-319.82
1021.489	-3215.65
1021.649	573.09
1021.808	149.16
1021.968	845.47
1022.127	-4081.94
1022.287	2260.62
1022.446	-1098.05
1022.606	1062.55
1022.765	-2824.49
1022.925	3143.29
1023.084	1351.32
1023.244	2147.98
1023.403	-608.59
1023.562	-1397.06
1023.722	-883.02
1023.881	-446.8
1024.04	-80.21
1024.199	1148.57
1024.359	286.37
1024.518	-3602.72
1024.677	-946.5
1024.836	-827.72
1024.995	1234.58
1025.154	-1128.77
1025.313	130.73
1025.473	-2183.48
1025.632	-2769.2
1025.791	1363.61
1025.95	-2533.68
1026.109	-905.54
1026.268	366.25
1026.427	1687.18
1026.586	2203.27
1026.744	329.38
1026.903	6712.9
1027.062	188.07
1027.221	1554.07
1027.38	775.84
1027.539	1562.26
1027.698	5420.63
1027.856	-2019.64
1028.015	1162.9
1028.174	824.99
1028.333	822.94
1028.491	4474.47
1028.65	2145.93
1028.808	4312.68
1028.967	1271.45
1029.126	1253.02
1029.284	-3309.86
1029.443	679.58
1029.601	-434.51
1029.76	-3078.44
1029.918	-1765.69
1030.077	1029.79
1030.235	2694.79
1030.394	-1073.48
1030.552	1646.23
1030.711	3174.01
1030.869	-475.47
1031.027	-778.57
1031.186	-3787.04
1031.344	-2351.41
1031.502	145.06
1031.661	1789.58
1031.819	2623.11
1031.977	1699.47
1032.135	-2070.84
1032.293	-1567.04
1032.452	-2730.28
1032.61	4208.23
1032.768	-2842.92
1032.926	548.51
1033.084	3823.22
1033.242	-1536.32
1033.4	-2222.39
1033.558	1255.06
1033.716	79.53
1033.874	-1589.57
1034.032	190.12
1034.19	44.71
1034.348	2854.53
1034.506	-3559.71
1034.664	1083.03
1034.822	-3232.04
1034.979	3069.56
1035.137	1189.53
1035.295	249.51
