Data from TmLN Sample 1_USBC44471_15-03-14-527.txt Node
Date: Wed Jul 29 15:03:14 MDT 2020
User: Montana Instruments
Spectrometer: USBC4447
Scans to average: 1
Trigger mode: 4
Integration Time (sec): 1.000000E1
Electric dark correction enabled: true
Boxcar width: 0
XAxis mode: Wavelengths
Number of Pixels in Spectrum: 3648
>>>>>Begin Spectral Data<<<<<
344.991	-4310.46
345.205	-4310.46
345.419	-4310.46
345.633	-4283.84
345.847	-4318.65
346.061	-212.48
346.275	1260.01
346.489	-1717.73
346.703	14.85
346.917	-2629.08
347.131	1708.52
347.345	-955.89
347.559	-1132.01
347.773	2341.34
347.986	-208.38
348.2	3471.82
348.414	-1940.96
348.628	-1029.62
348.842	-1857
349.056	-1684.97
349.269	817.65
349.483	1933.79
349.697	2130.4
349.911	2107.87
350.125	-1637.86
350.338	831.99
350.552	1352.17
350.766	-591.35
350.979	-2538.97
351.193	-419.32
351.407	5837.22
351.621	176.64
351.834	-2209.25
352.048	3226.06
352.262	-878.07
352.475	4035.01
352.689	1702.37
352.902	2210.27
353.116	156.16
353.33	-1926.63
353.543	-1795.56
353.757	979.44
353.971	311.8
354.184	862.71
354.398	-665.08
354.611	1311.21
354.825	3336.65
355.038	1964.51
355.252	-280.06
355.465	-163.33
355.679	-2889.17
355.892	1333.74
356.106	1827.3
356.319	7731.59
356.533	-1244.65
356.746	123.39
356.96	-1007.09
357.173	-2278.88
357.386	2071.01
357.6	-660.98
357.813	-1461.74
358.027	-2835.92
358.24	-1486.31
358.453	3334.61
358.667	-2084.32
358.88	1677.8
359.094	-2035.17
359.307	834.04
359.52	-622.07
359.733	2826.71
359.947	-3161.55
360.16	1868.26
360.373	2230.75
360.587	-1734.12
360.8	-1195.5
361.013	-99.84
361.226	-1357.29
361.44	2666.97
361.653	2214.37
361.866	-1134.06
362.079	-3177.94
362.292	602.61
362.506	3842.5
362.719	1104.37
362.932	3486.15
363.145	508.41
363.358	-1635.82
363.571	-1797.6
363.785	-382.46
363.998	1911.27
364.211	2603.48
364.424	-1885.67
364.637	1583.59
364.85	-941.55
365.063	2537.95
365.276	631.29
365.489	-2123.23
365.702	-292.35
365.915	625.14
366.128	115.2
366.341	2374.11
366.554	3969.48
366.767	-1576.42
366.98	420.35
367.193	1501.67
367.406	-2194.91
367.619	4264.38
367.832	2560.47
368.045	590.33
368.258	907.76
368.471	1544.68
368.684	-3014.1
368.896	-2966.99
369.109	442.87
369.322	-2000.35
369.535	66.05
369.748	-2239.97
369.961	-927.22
370.173	-3177.94
370.386	-3257.81
370.599	3226.06
370.812	-722.42
371.025	-1418.73
371.237	500.22
371.45	616.95
371.663	1274.35
371.876	-1164.78
372.088	5233.07
372.301	-1254.89
372.514	-2328.03
372.726	690.68
372.939	-175.61
373.152	-415.23
373.364	1647.08
373.577	3758.53
373.79	-572.92
374.002	-1902.05
374.215	-3270.09
374.428	-2844.12
374.64	2259.42
374.853	-1482.22
375.065	-785.91
375.278	4049.35
375.491	563.7
375.703	2052.58
375.916	-2917.84
376.128	-1463.79
376.341	-2350.56
376.553	1481.19
376.766	-2252.25
376.978	-2923.99
377.191	1370.6
377.403	-2768.34
377.616	3660.23
377.828	4682.17
378.04	-1897.96
378.253	-765.43
378.465	969.2
378.678	1679.85
378.89	-1760.74
379.103	-1074.67
379.315	696.82
379.527	-2837.97
379.74	-337.4
379.952	-26.11
380.164	-2426.33
380.377	2689.49
380.589	528.89
380.801	453.11
381.014	2263.52
381.226	1534.44
381.438	322.04
381.65	-2282.97
381.863	379.39
382.075	-1857
382.287	-3202.51
382.499	-1506.79
382.712	186.88
382.924	2.56
383.136	-1263.08
383.348	-3296.72
383.56	365.05
383.772	-1775.08
383.985	487.93
384.197	2036.19
384.409	-708.09
384.621	565.75
384.833	530.94
385.045	403.96
385.257	-2031.07
385.469	-980.47
385.681	575.99
385.893	363
386.105	-1461.74
386.318	-3243.47
386.53	-144.89
386.742	-3399.12
386.954	-3110.35
387.166	3252.69
387.378	485.88
387.589	76.29
387.801	-3280.33
388.013	-2500.06
388.225	-1842.66
388.437	-3106.26
388.649	-2803.16
388.861	3207.63
389.073	1690.09
389.285	-978.42
389.497	1374.7
389.709	1907.17
389.92	-1547.75
390.132	-1541.61
390.344	-1158.64
390.556	-1218.03
390.768	819.7
390.98	-1514.98
391.191	2480.6
391.403	944.63
391.615	911.86
391.827	-2000.35
392.038	-1371.63
392.25	-372.22
392.462	-3069.39
392.674	-2952.66
392.885	-2401.76
393.097	-3073.49
393.309	-824.82
393.52	1679.85
393.732	-2524.63
393.944	1032.69
394.155	1032.69
394.367	-2213.34
394.579	1153.52
394.79	-1986.02
395.002	840.18
395.213	-3263.95
395.425	-323.07
395.637	-2098.66
395.848	-3266
396.06	709.11
396.271	596.47
396.483	-2211.29
396.694	-24.06
396.906	-531.96
397.117	2050.53
397.329	2023.91
397.54	-943.6
397.752	-2749.91
397.963	-1738.21
398.175	377.34
398.386	1704.42
398.598	-1193.45
398.809	-3132.88
399.02	1335.79
399.232	1337.84
399.443	465.4
399.655	-1420.78
399.866	-1918.43
400.077	-304.64
400.289	1892.84
400.5	272.89
400.711	1540.58
400.923	-2065.89
401.134	-1988.07
401.345	-2864.6
401.556	4137.41
401.768	-1383.91
401.979	-1099.25
402.19	1403.37
402.401	-1027.57
402.613	610.81
402.824	-888.31
403.035	-3139.02
403.246	-2934.23
403.457	788.98
403.669	485.88
403.88	-2729.43
404.091	-3110.35
404.302	-1979.87
404.513	-1082.86
404.724	-1310.19
404.935	-1271.28
405.146	1569.26
405.358	-2880.98
405.569	-2481.63
405.78	-3147.22
405.991	-984.56
406.202	229.88
406.413	-120.32
406.624	-2729.43
406.835	-228.86
407.046	3578.31
407.257	115.2
407.468	1679.85
407.679	-245.24
407.89	2542.04
408.101	2499.03
408.312	-800.24
408.522	-2813.4
408.733	702.97
408.944	541.18
409.155	-837.11
409.366	1616.36
409.577	-3020.24
409.788	-364.03
409.999	240.12
410.209	-927.22
410.42	258.56
410.631	-2774.49
410.842	-208.38
411.053	5378.48
411.264	1751.53
411.474	-1625.58
411.685	-54.78
411.896	-1918.43
412.107	-3155.41
412.317	-1404.39
412.528	2564.57
412.739	-3083.73
412.949	-2242.01
413.16	403.96
413.371	2804.18
413.581	1708.52
413.792	-562.68
414.003	4168.13
414.213	2363.87
414.424	-3040.72
414.635	-847.35
414.845	-1756.65
415.056	1436.14
415.266	-2495.96
415.477	-3282.38
415.687	1141.23
415.898	1544.68
416.109	-2596.31
416.319	864.75
416.53	-3245.52
416.74	174.59
416.951	-2090.46
417.161	184.83
417.372	496.12
417.582	1018.35
417.792	2353.63
418.003	2752.98
418.213	-876.02
418.424	899.57
418.634	-2346.46
418.844	1683.94
419.055	2355.68
419.265	-2069.98
419.476	993.78
419.686	-1457.64
419.896	133.63
420.107	-2129.38
420.317	-822.77
420.527	233.98
420.738	-382.46
420.948	1583.59
421.158	2120.16
421.368	-996.85
421.579	-366.07
421.789	-2039.26
421.999	-3526.09
422.209	-437.75
422.419	-620.02
422.63	-251.39
422.84	-372.22
423.05	-1768.93
423.26	-1627.62
423.47	-308.73
423.681	-2928.08
423.891	1444.33
424.101	2189.79
424.311	-1654.25
424.521	8.7
424.731	-1058.29
424.941	-833.01
425.151	727.54
425.361	-2440.67
425.571	-3569.1
425.781	4573.63
425.991	1335.79
426.201	2101.73
426.411	827.89
426.621	-2057.7
426.831	-3071.44
427.041	535.03
427.251	-384.51
427.461	1905.12
427.671	1763.81
427.881	-912.88
428.091	23.04
428.301	2920.92
428.511	-38.4
428.721	-3507.66
428.93	-443.9
429.14	-1906.15
429.35	594.42
429.56	-1357.29
429.77	-450.04
429.98	-1916.39
430.189	-1922.53
430.399	3385.8
430.609	2089.44
430.819	764.4
431.029	-2467.29
431.238	-988.66
431.448	-1215.98
431.658	-3139.02
431.867	-1191.41
432.077	684.53
432.287	-1660.39
432.497	-1578.47
432.706	-13.82
432.916	-456.19
433.125	-3511.75
433.335	-1857
433.545	1903.07
433.754	4372.93
433.964	-2170.33
434.174	-1330.67
434.383	2699.73
434.593	-1566.18
434.802	1415.66
435.012	-2072.03
435.221	530.94
435.431	-613.88
435.64	-1836.52
435.85	-1754.6
436.059	414.2
436.269	1585.64
436.478	-1574.38
436.688	-3165.65
436.897	-1834.47
437.107	-3204.56
437.316	26450.03
437.525	555.51
437.735	223.74
437.944	371.19
438.154	3084.75
438.363	510.46
438.572	3385.8
438.782	866.8
438.991	-1416.68
439.2	-232.96
439.41	-2018.79
439.619	-1181.17
439.828	383.48
440.038	164.35
440.247	2566.62
440.456	-1953.25
440.665	1012.21
440.875	1470.95
441.084	334.33
441.293	-2289.12
441.502	-1879.52
441.711	-1883.62
441.92	326.14
442.13	166.4
442.339	-2121.18
442.548	-771.57
442.757	2433.5
442.966	-3616.2
443.175	-1682.92
443.384	2132.45
443.593	2197.98
443.803	-2749.91
444.012	-110.08
444.221	-777.72
444.43	5106.1
444.639	1257.96
444.848	2679.26
445.057	-1990.11
445.266	-2530.78
445.475	-3159.5
445.684	-1996.26
445.893	2836.95
446.102	197.12
446.311	-3618.25
446.52	410.11
446.728	3422.67
446.937	-2979.28
447.146	-3616.2
447.355	897.52
447.564	-443.9
447.773	2005.47
447.982	2116.06
448.191	969.2
448.399	-2213.34
448.608	-1828.32
448.817	-327.16
449.026	1628.65
449.235	-2432.47
449.443	1556.97
449.652	-396.79
449.861	-1574.38
450.07	430.59
450.278	2433.5
450.487	-3767.75
450.696	170.49
450.904	-2133.47
451.113	-1906.15
451.322	1274.35
451.53	-853.49
451.739	3600.84
451.948	-2047.46
452.156	682.49
452.365	4590.01
452.574	1382.89
452.782	59.9
452.991	-214.52
453.199	1272.3
453.408	621.05
453.616	-2661.85
453.825	1860.07
454.033	1849.83
454.242	3926.47
454.45	3961.28
454.659	913.91
454.867	14795.04
455.076	-1816.04
455.284	-1887.72
455.493	-2307.55
455.701	-1695.21
455.91	3736.01
456.118	-1981.92
456.326	-2811.35
456.535	3176.91
456.743	1782.24
456.951	-2797.01
457.16	1726.95
457.368	1182.19
457.576	-2555.35
457.785	3107.28
457.993	346.62
458.201	-2196.96
458.41	1147.37
458.618	-2029.03
458.826	420.35
459.034	-3691.98
459.243	-2368.99
459.451	82.43
459.659	645.62
459.867	-513.53
460.075	-1254.89
460.284	-564.73
460.492	-3061.2
460.7	-349.69
460.908	-994.8
461.116	-2993.62
461.324	-1680.87
461.532	-3495.37
461.741	-2717.14
461.949	-1758.69
462.157	2734.55
462.365	250.36
462.573	0.51
462.781	289.28
462.989	-654.84
463.197	-2614.74
463.405	-2754.01
463.613	-122.37
463.821	-3302.86
464.029	358.91
464.237	-1822.18
464.445	-1631.72
464.653	1518.06
464.861	-220.67
465.069	2021.86
465.276	5257.65
465.484	-695.8
465.692	-751.09
465.9	-1543.66
466.108	-1293.8
466.316	1546.73
466.524	-841.2
466.731	-777.72
466.939	2392.54
467.147	336.38
467.355	47.62
467.563	2154.98
467.77	1032.69
467.978	-3474.89
468.186	614.9
468.393	2621.91
468.601	-802.29
468.809	-2745.81
469.017	-1027.57
469.224	-2549.21
469.432	1309.16
469.64	-1500.65
469.847	-3093.97
470.055	874.99
470.263	-2270.69
470.47	-1215.98
470.678	2114.02
470.885	-257.53
471.093	3189.2
471.3	1354.22
471.508	-2409.95
471.716	-660.98
471.923	-212.48
472.131	895.47
472.338	-2168.29
472.546	-1461.74
472.753	3385.8
472.961	-1746.41
473.168	33.28
473.375	-785.91
473.583	1692.13
473.79	113.15
473.998	678.39
474.205	614.9
474.412	2427.35
474.62	-691.7
474.827	-2037.22
475.035	2001.38
475.242	-1785.32
475.449	-1852.9
475.657	4610.49
475.864	3633.61
476.071	-243.2
476.278	-1144.3
476.486	-833.01
476.693	631.29
476.9	313.85
477.107	827.89
477.315	-1488.36
477.522	379.39
477.729	2013.67
477.936	-519.67
478.143	-2416.09
478.351	2873.81
478.558	-2301.4
478.765	-482.81
478.972	-400.89
479.179	889.33
479.386	1004.02
479.593	1663.46
479.8	1333.74
480.007	-2412
480.215	-337.4
480.422	1724.9
480.629	-3065.3
480.836	1456.62
481.043	3654.09
481.25	-437.75
481.457	-2227.68
481.664	-1177.07
481.871	924.15
482.078	-1363.44
482.284	-2418.14
482.491	2533.85
482.698	2525.66
482.905	-1244.65
483.112	-3358.16
483.319	446.97
483.526	-73.21
483.733	2822.61
483.94	-3544.52
484.146	-2594.26
484.353	-153.09
484.56	-214.52
484.767	-3554.76
484.974	2763.22
485.18	2249.18
485.387	-259.58
485.594	-1734.12
485.801	2449.88
486.007	92.67
486.214	-820.72
486.421	-2989.52
486.627	-347.64
486.834	1219.05
487.041	1204.72
487.247	-1949.15
487.454	-2319.84
487.661	592.37
487.867	1128.94
488.074	-2637.27
488.281	1753.57
488.487	-822.77
488.694	-914.93
488.9	-419.32
489.107	-1789.41
489.313	-1652.2
489.52	-550.39
489.726	-2399.71
489.933	3539.4
490.139	3418.57
490.346	-144.89
490.552	723.44
490.759	-708.09
490.965	188.93
491.172	3781.06
491.378	-390.65
491.584	496.12
491.791	2378.2
491.997	389.63
492.204	-386.55
492.41	3826.12
492.616	-2663.9
492.823	-1949.15
493.029	-1586.66
493.235	2957.78
493.442	-570.87
493.648	-622.07
493.854	-757.24
494.06	5134.77
494.267	1018.35
494.473	-656.89
494.679	-1850.85
494.885	748.02
495.091	3901.89
495.298	1552.87
495.504	-3495.37
495.71	-329.21
495.916	-2858.45
496.122	3172.82
496.328	1022.45
496.535	1141.23
496.741	-1148.4
496.947	1290.73
497.153	-153.09
497.359	928.24
497.565	694.77
497.771	2406.88
497.977	221.69
498.183	-957.94
498.389	1165.81
498.595	-2098.66
498.801	1044.98
499.007	1518.06
499.213	-749.04
499.419	-245.24
499.625	348.67
499.831	3860.93
500.037	-1297.9
500.243	-1725.93
500.448	-587.26
500.654	1622.5
500.86	2619.86
501.066	-357.88
501.272	3062.23
501.478	-2725.33
501.684	-1248.75
501.889	-2412
502.095	-2401.76
502.301	-570.87
502.507	899.57
502.712	-120.32
502.918	-1832.42
503.124	-1730.02
503.33	1552.87
503.535	-617.97
503.741	494.07
503.947	-413.18
504.152	-523.77
504.358	-2934.23
504.564	-521.72
504.769	932.34
504.975	4950.45
505.181	551.42
505.386	-2536.92
505.592	-1150.45
505.797	1135.09
506.003	-3470.8
506.208	2525.66
506.414	-497.14
506.619	-30.21
506.825	1186.29
507.03	-3036.63
507.236	-1883.62
507.441	-46.59
507.647	-656.89
507.852	567.8
508.058	1890.79
508.263	1546.73
508.469	-275.96
508.674	-3272.14
508.879	-802.29
509.085	-398.84
509.29	-2239.97
509.495	-1832.42
509.701	-1312.24
509.906	1378.79
510.111	-173.57
510.317	1597.93
510.522	567.8
510.727	2712.02
510.933	-398.84
511.138	1036.78
511.343	-1078.77
511.548	829.94
511.754	-1795.56
511.959	2982.35
512.164	248.32
512.369	4057.54
512.574	4370.88
512.779	-2053.6
512.985	-335.35
513.19	1415.66
513.395	651.77
513.6	-1150.45
513.805	-105.98
514.01	2570.71
514.215	317.95
514.42	3523.02
514.625	-734.71
514.83	3420.62
515.035	463.35
515.24	465.4
515.445	3758.53
515.65	2703.83
515.855	1049.07
516.06	-357.88
516.265	1196.53
516.47	1952.23
516.675	907.76
516.88	-3354.06
517.085	457.21
517.29	-1103.34
517.495	2148.83
517.7	2427.35
517.904	-34.3
518.109	1106.42
518.314	68.09
518.519	1083.89
518.724	1372.65
518.928	1038.83
519.133	-87.55
519.338	752.12
519.543	1034.74
519.747	1636.84
519.952	3727.82
520.157	6707.61
520.362	1602.02
520.566	3334.61
520.771	-2452.95
520.976	1665.51
521.18	4420.03
521.385	-1770.98
521.59	-484.86
521.794	1214.96
521.999	2996.69
522.203	-1875.43
522.408	178.69
522.612	-1113.58
522.817	1227.25
523.022	2961.87
523.226	494.07
523.431	-1445.35
523.635	563.7
523.84	2795.99
524.044	-488.95
524.249	2345.44
524.453	3723.72
524.657	500.22
524.862	6605.21
525.066	-1033.71
525.271	-175.61
525.475	1939.94
525.679	555.51
525.884	-2661.85
526.088	2257.37
526.292	3348.94
526.497	999.92
526.701	-697.85
526.905	-60.93
527.11	397.82
527.314	512.5
527.518	4245.95
527.722	-1064.43
527.927	1962.47
528.131	-2424.28
528.335	6109.6
528.539	2597.34
528.744	3457.48
528.948	-2080.22
529.152	-1168.88
529.356	3523.02
529.56	971.25
529.764	911.86
529.968	684.53
530.173	8501.63
530.377	6984.09
530.581	-1924.58
530.785	2353.63
530.989	-595.45
531.193	770.55
531.397	-1019.38
531.601	1044.98
531.805	2685.4
532.009	2400.73
532.213	758.26
532.417	1505.77
532.621	2955.73
532.825	4092.35
533.029	834.04
533.233	1477.1
533.436	1395.18
533.64	674.29
533.844	2488.79
534.048	-153.09
534.252	2111.97
534.456	4344.25
534.66	3027.41
534.863	729.59
535.067	862.71
535.271	3125.71
535.475	199.16
535.679	2240.99
535.882	3975.62
536.086	2714.07
536.29	2984.4
536.493	1405.42
536.697	2259.42
536.901	1718.76
537.104	2974.16
537.308	2011.62
537.512	2193.89
537.715	4559.29
537.919	2732.5
538.123	2761.17
538.326	2243.04
538.53	3678.66
538.733	4286.91
538.937	3236.3
539.141	2900.44
539.344	3994.05
539.548	2984.4
539.751	5446.06
539.955	6580.64
540.158	8006.02
540.362	5831.08
540.565	3826.12
540.768	5458.35
540.972	11462.99
541.175	9566.57
541.379	7686.54
541.582	7199.12
541.785	8739.19
541.989	10049.89
542.192	6078.88
542.396	7139.73
542.599	9369.97
542.802	9464.18
543.005	8432
543.209	7344.53
543.412	8690.04
543.615	8833.4
543.819	8726.91
544.022	7494.03
544.225	8601.98
544.428	8491.39
544.631	11069.78
544.835	8110.47
545.038	6996.37
545.241	7340.43
545.444	10215.78
545.647	8872.31
545.85	7551.37
546.054	6564.25
546.257	4682.17
546.46	7379.34
546.663	6719.9
546.866	7367.06
547.069	7534.99
547.272	6281.63
547.475	6734.23
547.678	6146.47
547.881	4833.72
548.084	5589.42
548.287	5745.06
548.49	3404.24
548.693	4989.36
548.896	2775.51
549.099	5323.18
549.302	3533.26
549.505	2968.02
549.707	2619.86
549.91	4921.78
550.113	2925.01
550.316	2417.12
550.519	5226.93
550.722	5132.72
550.924	2908.63
551.127	3766.73
551.33	3242.45
551.533	2449.88
551.736	2322.91
551.938	1903.07
552.141	3744.2
552.344	1423.85
552.546	3889.6
552.749	2347.48
552.952	2806.23
553.154	2572.76
553.357	2806.23
553.56	2515.42
553.762	7707.02
553.965	6791.58
554.168	2882
554.37	4737.46
554.573	3590.6
554.775	5069.23
554.978	4069.83
555.18	1247.72
555.383	2173.41
555.585	5843.37
555.788	3518.92
555.99	2161.12
556.193	2978.26
556.395	4215.23
556.598	2025.95
556.8	2656.73
557.003	3051.99
557.205	6584.73
557.407	2304.48
557.61	2976.21
557.812	3381.71
558.015	5061.04
558.217	2284
558.419	3138
558.622	4895.16
558.824	3287.5
559.026	1905.12
559.228	2664.92
559.431	4211.14
559.633	4346.3
559.835	2623.96
560.037	4065.73
560.24	5777.83
560.442	5056.95
560.644	2511.32
560.846	4190.66
561.048	4704.7
561.25	5382.57
561.453	3848.65
561.655	2910.68
561.857	3449.29
562.059	3074.51
562.261	5441.96
562.463	3838.41
562.665	3613.13
562.867	4663.74
563.069	4497.85
563.271	5591.47
563.473	4504
563.675	4164.03
563.877	4145.6
564.079	3170.77
564.281	6189.47
564.483	4712.89
564.685	3955.14
564.887	3412.43
565.089	5499.31
565.291	5456.3
565.493	2910.68
565.694	6230.43
565.896	2841.04
566.098	5142.96
566.3	5986.72
566.502	3498.44
566.704	6480.29
566.905	1673.7
567.107	2365.92
567.309	2202.08
567.511	5036.47
567.712	2257.37
567.914	3363.28
568.116	1468.91
568.317	5601.71
568.519	3858.89
568.721	1155.57
568.922	1047.02
569.124	3428.81
569.326	6085.03
569.527	3477.96
569.729	3408.33
569.93	7328.14
570.132	2961.87
570.334	5007.8
570.535	1874.4
570.737	2931.16
570.938	7066
571.14	3162.58
571.341	4471.23
571.543	7805.32
571.744	3580.36
571.946	5216.69
572.147	2695.64
572.348	6031.78
572.55	5200.3
572.751	5822.89
572.953	3322.32
573.154	5294.51
573.355	7641.48
573.557	9961.83
573.758	4622.78
573.959	4479.42
574.161	6160.8
574.362	6285.73
574.563	8188.29
574.765	6828.44
574.966	6900.12
575.167	3385.8
575.368	6255.01
575.569	4807.09
575.771	7002.52
575.972	4018.63
576.173	4985.27
576.374	6498.72
576.575	5833.13
576.776	2525.66
576.978	3606.98
577.179	4405.69
577.38	5140.91
577.581	3746.25
577.782	4297.15
577.983	6107.55
578.184	6570.4
578.385	4272.57
578.586	4934.07
578.787	3729.86
578.988	5134.77
579.189	2824.66
579.39	3619.27
579.591	4497.85
579.792	3566.03
579.993	5374.38
580.194	5570.99
580.395	6568.35
580.596	4956.6
580.796	5841.32
580.997	3688.9
581.198	4602.3
581.399	6384.03
581.6	6887.83
581.801	3697.1
582.001	7322
582.202	3234.25
582.403	2347.48
582.604	8350.08
582.804	4676.02
583.005	4886.97
583.206	1673.7
583.407	5990.82
583.607	4043.2
583.808	3643.85
584.009	5618.09
584.209	5446.06
584.41	2585.05
584.61	4178.37
584.811	3979.72
585.012	3197.39
585.212	2642.39
585.413	4110.79
585.613	4186.56
585.814	2687.45
586.014	5736.87
586.215	3455.44
586.415	4073.92
586.616	2900.44
586.816	3523.02
587.017	5628.33
587.217	2636.25
587.418	6603.16
587.618	3537.35
587.819	3469.77
588.019	1896.93
588.219	1423.85
588.42	3785.16
588.62	1767.91
588.82	1974.75
589.021	2273.76
589.221	4196.8
589.421	2458.07
589.622	4716.98
589.822	2271.71
590.022	6306.21
590.222	4360.64
590.423	2841.04
590.623	1849.83
590.823	4016.58
591.023	3770.82
591.223	1632.74
591.423	6410.65
591.624	3582.41
591.824	3291.6
592.024	2091.49
592.224	2867.67
592.424	6017.44
592.624	3316.17
592.824	3815.88
593.024	2804.18
593.224	5657
593.424	5470.64
593.624	3365.32
593.824	3066.32
594.024	3760.58
594.224	1851.88
594.424	3305.93
594.624	1274.35
594.824	2539.99
595.024	2025.95
595.224	3236.3
595.424	1268.2
595.624	1395.18
595.824	1925.6
596.023	4665.78
596.223	4374.97
596.423	2367.96
596.623	3439.05
596.823	569.85
597.023	-355.83
597.222	6834.58
597.422	1399.27
597.622	496.12
597.822	1632.74
598.021	3060.18
598.221	1380.84
598.421	70.14
598.62	2111.97
598.82	1169.9
599.02	5577.13
599.219	5009.84
599.419	3078.61
599.618	1087.98
599.818	3267.02
600.018	-189.95
600.217	1745.38
600.417	4794.81
600.616	2216.41
600.816	2593.24
601.015	2583
601.215	1669.61
601.414	1090.03
601.614	1489.39
601.813	-56.83
602.013	2953.68
602.212	2107.87
602.412	1036.78
602.611	3242.45
602.81	2757.08
603.01	3764.68
603.209	2417.12
603.408	-935.41
603.608	3355.08
603.807	1858.02
604.006	6451.61
604.206	741.88
604.405	2154.98
604.604	2468.31
604.803	2236.89
605.003	1022.45
605.202	596.47
605.401	1337.84
605.6	3135.95
605.8	1163.76
605.999	1075.7
606.198	2490.84
606.397	2746.84
606.596	1628.65
606.795	3455.44
606.994	4317.63
607.193	1421.8
607.393	4303.29
607.592	4432.32
607.791	2296.28
607.99	4430.27
608.189	4370.88
608.388	5335.47
608.587	4561.34
608.786	3035.6
608.985	1346.03
609.184	2912.72
609.382	4143.55
609.581	3502.54
609.78	5513.64
609.979	5056.95
610.178	3652.04
610.377	3252.69
610.576	1288.68
610.775	3785.16
610.973	3983.81
611.172	4569.53
611.371	3402.19
611.57	2996.69
611.769	5562.8
611.967	2421.21
612.166	5106.1
612.365	3631.56
612.564	3703.24
612.762	3398.09
612.961	4131.26
613.16	2820.56
613.358	3758.53
613.557	649.72
613.756	3613.13
613.954	4778.42
614.153	2009.57
614.351	2116.06
614.55	997.87
614.749	4456.89
614.947	2671.06
615.146	1395.18
615.344	3234.25
615.543	334.33
615.741	3111.38
615.94	3561.93
616.138	1579.5
616.337	3697.1
616.535	1550.82
616.733	713.21
616.932	2167.26
617.13	4342.21
617.329	5736.87
617.527	-738.8
617.725	-2153.95
617.924	-1492.46
618.122	670.2
618.32	-251.39
618.519	-1861.09
618.717	3107.28
618.915	2798.04
619.114	1944.03
619.312	397.82
619.51	887.28
619.708	2955.73
619.906	-17.92
620.105	-222.72
620.303	51.71
620.501	4577.72
620.699	-2069.98
620.897	1561.06
621.095	2578.9
621.293	-1988.07
621.492	2623.96
621.69	391.67
621.888	1911.27
622.086	3854.79
622.284	1860.07
622.482	1112.56
622.68	1243.63
622.878	399.87
623.076	692.73
623.274	653.81
623.472	829.94
623.67	2068.96
623.868	-3325.39
624.065	1475.05
624.263	1429.99
624.461	1436.14
624.659	-67.07
624.857	3932.61
625.055	3174.86
625.253	-630.26
625.45	567.8
625.648	655.86
625.846	557.56
626.044	512.5
626.242	1120.75
626.439	2666.97
626.637	1272.3
626.835	-341.5
627.032	2562.52
627.23	-2143.71
627.428	4118.98
627.626	1892.84
627.823	1106.42
628.021	3455.44
628.218	2703.83
628.416	1997.28
628.614	-1371.63
628.811	-2401.76
629.009	-1308.14
629.206	-861.68
629.404	-949.75
629.601	649.72
629.799	-2774.49
629.996	3785.16
630.194	1858.02
630.391	1624.55
630.589	-589.3
630.786	2640.34
630.984	1077.74
631.181	-3136.98
631.378	-884.21
631.576	2511.32
631.773	-2801.11
631.97	-1879.52
632.168	-2467.29
632.365	119.29
632.562	989.68
632.76	-1076.72
632.957	711.16
633.154	72.19
633.352	1364.46
633.549	-716.28
633.746	2937.3
633.943	1501.67
634.14	-222.72
634.338	2925.01
634.535	-337.4
634.732	-495.1
634.929	3314.13
635.126	1307.12
635.323	338.43
635.52	2861.52
635.717	1032.69
635.915	137.73
636.112	139.77
636.309	-2792.92
636.506	-175.61
636.703	-3403.21
636.9	-525.82
637.097	5552.56
637.294	883.19
637.491	-1039.86
637.688	2898.39
637.884	-2012.64
638.081	-228.86
638.278	92.67
638.475	-648.69
638.672	-1269.23
638.869	-515.58
639.066	6183.33
639.263	1217.01
639.459	1145.33
639.656	-3268.05
639.853	-2506.2
640.05	14752.03
640.246	2720.21
640.443	408.06
640.64	-3560.91
640.837	641.53
641.033	-2782.68
641.23	453.11
641.427	43.52
641.623	1210.86
641.82	-1357.29
642.017	-1363.44
642.213	-372.22
642.41	-1025.52
642.606	1610.22
642.803	1888.74
643	721.4
643.196	-2156
643.393	2691.54
643.589	961.01
643.786	-1492.46
643.982	4759.99
644.179	2079.2
644.375	-820.72
644.571	-269.82
644.768	-2430.43
644.964	-499.19
645.161	53.76
645.357	3267.02
645.553	754.16
645.75	2894.29
645.946	719.35
646.143	102.91
646.339	680.44
646.535	643.57
646.731	2202.08
646.928	205.31
647.124	-2610.65
647.32	2916.82
647.516	2642.39
647.713	-2043.36
647.909	-52.74
648.105	-1027.57
648.301	-3530.19
648.497	989.68
648.693	-656.89
648.89	-1093.1
649.086	326.14
649.282	-1349.1
649.478	-910.83
649.674	98.81
649.87	2542.04
650.066	2015.71
650.262	-1928.67
650.458	2185.69
650.654	-1656.29
650.85	479.74
651.046	-794.1
651.242	-171.52
651.438	858.61
651.634	-2471.39
651.83	-1611.24
652.026	696.82
652.222	158.21
652.417	-171.52
652.613	1692.13
652.809	-2551.26
653.005	-957.94
653.201	2912.72
653.397	-2102.75
653.592	-390.65
653.788	-1254.89
653.984	2085.34
654.18	5276.08
654.375	-1848.8
654.571	412.15
654.767	-7.68
654.962	-1885.67
655.158	-2975.19
655.354	-337.4
655.549	1780.2
655.745	1624.55
655.941	4106.69
656.136	-738.8
656.332	-2082.27
656.527	-36.35
656.723	2101.73
656.918	-2698.71
657.114	-534.01
657.309	-476.66
657.505	1200.62
657.7	1864.16
657.896	-1736.17
658.091	-2051.55
658.287	-1402.35
658.482	-3337.68
658.678	-1517.03
658.873	397.82
659.068	3781.06
659.264	-163.33
659.459	29347.9
659.654	1044.98
659.85	2972.11
660.045	-2115.04
660.24	2466.27
660.436	5814.7
660.631	-566.78
660.826	2572.76
661.021	823.8
661.217	2965.97
661.412	-1627.62
661.607	-3184.08
661.802	-247.29
661.997	-728.56
662.192	686.58
662.388	-3513.8
662.583	-527.86
662.778	717.3
662.973	-2897.36
663.168	-3503.56
663.363	-1359.34
663.558	4635.07
663.753	1735.14
663.948	-2835.92
664.143	-2534.87
664.338	416.25
664.533	1401.32
664.728	-300.54
664.923	-1621.48
665.118	336.38
665.313	-1963.49
665.508	1999.33
665.703	1958.37
665.897	1821.16
666.092	555.51
666.287	883.19
666.482	-415.23
666.677	2507.23
666.872	2083.3
667.066	-755.19
667.261	-1326.57
667.456	303.61
667.651	1999.33
667.845	2419.16
668.04	985.58
668.235	-2452.95
668.429	1669.61
668.624	754.16
668.819	-761.33
669.013	-2596.31
669.208	1200.62
669.402	-2115.04
669.597	305.66
669.792	-1492.46
669.986	3500.49
670.181	-3085.78
670.375	911.86
670.57	-2704.85
670.764	-2047.46
670.959	-91.65
671.153	297.47
671.348	-689.65
671.542	3158.48
671.737	-3118.54
671.931	-3694.02
672.125	588.28
672.32	2320.86
672.514	1853.92
672.709	-2338.27
672.903	-153.09
673.097	-1449.45
673.291	-1770.98
673.486	2124.26
673.68	287.23
673.874	-2094.56
674.069	-1340.91
674.263	1405.42
674.457	1995.23
674.651	1104.37
674.845	-505.34
675.04	4221.38
675.234	-2106.85
675.428	-732.66
675.622	-1758.69
675.816	-2622.94
676.01	-1322.48
676.204	-282.11
676.398	393.72
676.592	-726.52
676.787	-1629.67
676.981	-85.5
677.175	403.96
677.369	-3821
677.563	-54.78
677.757	-441.85
677.95	-1676.77
678.144	-3718.6
678.338	-1881.57
678.532	1065.46
678.726	-3413.45
678.92	3754.44
679.114	195.07
679.308	92.67
679.502	-3780.04
679.695	-3184.08
679.889	-1230.32
680.083	-2856.4
680.277	-3337.68
680.471	-140.8
680.664	-2541.02
680.858	793.08
681.052	244.22
681.245	-1471.98
681.439	1124.85
681.633	-2069.98
681.826	-157.18
682.02	-1029.62
682.214	1276.4
682.407	-2358.75
682.601	-910.83
682.795	-206.33
682.988	-1097.2
683.182	-2205.15
683.375	-339.45
683.569	-947.7
683.762	1235.44
683.956	2496.99
684.149	2204.13
684.343	2398.68
684.536	-2252.25
684.73	8.7
684.923	-3235.28
685.116	-2676.18
685.31	2736.6
685.503	1194.48
685.696	113.15
685.89	1477.1
686.083	-2657.75
686.276	-1955.3
686.47	600.57
686.663	-660.98
686.856	-366.07
687.05	1749.48
687.243	-275.96
687.436	1931.75
687.629	2382.3
687.822	588.28
688.016	-880.11
688.209	-1304.04
688.402	981.49
688.595	-323.07
688.788	-3065.3
688.981	-2428.38
689.174	3461.58
689.367	41.47
689.561	-355.83
689.754	-3634.63
689.947	-1109.49
690.14	-306.68
690.333	-3790.28
690.526	-747
690.719	2218.46
690.912	2410.97
691.104	860.66
691.297	-69.12
691.49	399.87
691.683	-2004.45
691.876	-3757.51
692.069	3236.3
692.262	-241.15
692.455	547.32
692.647	-11.78
692.84	-2457.05
693.033	1270.25
693.226	793.08
693.419	-1248.75
693.611	-794.1
693.804	178.69
693.997	846.32
694.189	264.7
694.382	-1805.8
694.575	3615.18
694.767	-431.61
694.96	-1904.1
695.153	-52.74
695.345	317.95
695.538	2259.42
695.731	993.78
695.923	-468.47
696.116	244.22
696.308	2087.39
696.501	623.09
696.693	2476.51
696.886	-1807.84
697.078	-2723.29
697.271	879.09
697.463	1325.55
697.655	-486.9
697.848	143.87
698.04	-1218.03
698.233	-3300.81
698.425	-1048.05
698.617	1819.11
698.81	-1601
699.002	-1277.42
699.194	2402.78
699.387	1346.03
699.579	-1347.05
699.771	-3042.77
699.963	-2858.45
700.156	-2813.4
700.348	1636.84
700.54	610.81
700.732	-1961.44
700.924	-1437.16
701.117	-583.16
701.309	-1383.91
701.501	-2905.56
701.693	4850.1
701.885	-1002.99
702.077	1724.9
702.269	766.45
702.461	2515.42
702.653	649.72
702.845	-423.42
703.037	817.65
703.229	2580.95
703.421	-898.55
703.613	-1736.17
703.805	4012.48
703.997	492.02
704.189	1915.36
704.381	-1078.77
704.573	4374.97
704.765	-1510.89
704.957	2173.41
705.148	371.19
705.34	-1621.48
705.532	-155.13
705.724	-1146.35
705.916	-2907.6
706.107	2314.72
706.299	455.16
706.491	2748.89
706.682	2062.82
706.874	-1095.15
707.066	-736.76
707.258	-1961.44
707.449	-206.33
707.641	6007.2
707.832	-316.92
708.024	-679.41
708.216	-50.69
708.407	1221.1
708.599	-1279.47
708.79	2587.1
708.982	-2432.47
709.173	-949.75
709.365	-2092.51
709.556	109.05
709.748	-214.52
709.939	481.78
710.131	729.59
710.322	-3210.7
710.514	3289.55
710.705	-1215.98
710.896	842.23
711.088	1167.85
711.279	1321.45
711.47	2486.75
711.662	1692.13
711.853	-1619.43
712.044	-3478.99
712.236	401.91
712.427	-85.5
712.618	-3446.22
712.809	-1611.24
713	-1107.44
713.192	2017.76
713.383	-871.92
713.574	881.14
713.765	193.02
713.956	-1820.13
714.147	2556.38
714.338	-2649.56
714.53	2288.09
714.721	3064.27
714.912	-1398.25
715.103	-3255.76
715.294	1085.94
715.485	1325.55
715.676	-3323.34
715.867	-3749.32
716.058	-1287.66
716.249	2064.86
716.44	25.09
716.63	-2569.69
716.821	-511.48
717.012	1843.68
717.203	-1568.23
717.394	-953.84
717.585	-2917.84
717.776	-1627.62
717.966	-1248.75
718.157	-2074.08
718.348	702.97
718.539	-183.81
718.73	1638.89
718.92	2761.17
719.111	-1619.43
719.302	559.61
719.492	-1076.72
719.683	1186.29
719.874	-2039.26
720.064	4553.15
720.255	-3093.97
720.446	-22.02
720.636	2095.58
720.827	1915.36
721.017	1061.36
721.208	-650.74
721.398	-1742.31
721.589	1296.88
721.779	782.84
721.97	-3853.77
722.16	-2520.54
722.351	-2883.03
722.541	-974.32
722.732	1722.85
722.922	1501.67
723.112	2394.59
723.303	-2508.25
723.493	-1797.6
723.683	1694.18
723.874	2834.9
724.064	1008.11
724.254	2572.76
724.445	-1723.88
724.635	2810.33
724.825	-3743.17
725.015	-716.28
725.206	-1267.18
725.396	1896.93
725.586	-1787.36
725.776	1481.19
725.966	4155.84
726.157	1788.39
726.347	2650.58
726.537	109.05
726.727	2658.78
726.917	-2383.32
727.107	-1066.48
727.297	-3669.45
727.487	2640.34
727.677	-1973.73
727.867	743.92
728.057	-357.88
728.247	838.13
728.437	1032.69
728.627	-949.75
728.817	-1015.28
729.007	1006.06
729.197	991.73
729.387	-370.17
729.576	-296.44
729.766	2345.44
729.956	-1064.43
730.146	-843.25
730.336	-3106.26
730.525	-235
730.715	-2299.36
730.905	446.97
731.095	-939.51
731.284	1104.37
731.474	2378.2
731.664	-460.28
731.853	-3521.99
732.043	-2110.94
732.233	-2993.62
732.422	2157.02
732.612	-2225.63
732.802	776.69
732.991	164.35
733.181	-3577.29
733.37	-2504.15
733.56	-634.36
733.749	1122.8
733.939	-3044.82
734.128	1524.2
734.318	3295.69
734.507	-1553.9
734.697	-3370.44
734.886	1997.28
735.076	-2584.02
735.265	2433.5
735.454	903.67
735.644	-2754.01
735.833	-2205.15
736.022	-564.73
736.212	-1086.96
736.401	-841.2
736.59	1765.86
736.779	-1465.83
736.969	-2975.19
737.158	713.21
737.347	-2321.88
737.536	-818.68
737.726	-1910.24
737.915	1749.48
738.104	1282.54
738.293	-1713.64
738.482	489.98
738.671	-2063.84
738.86	-2872.79
739.049	1327.6
739.238	-1549.8
739.427	-1043.95
739.616	-2788.82
739.806	-2889.17
739.995	-3653.06
740.183	-3053.01
740.372	64
740.561	-1320.43
740.75	-3741.13
740.939	543.22
741.128	594.42
741.317	1653.22
741.506	-1007.09
741.695	651.77
741.884	1468.91
742.072	2218.46
742.261	336.38
742.45	-527.86
742.639	997.87
742.828	612.85
743.016	-560.63
743.205	-2719.19
743.394	-2414.04
743.582	2175.45
743.771	516.6
743.96	1237.49
744.148	336.38
744.337	10.75
744.526	1057.26
744.714	-1177.07
744.903	4549.05
745.091	-280.06
745.28	2470.36
745.468	1507.82
745.657	1237.49
745.845	692.73
746.034	-302.59
746.222	471.54
746.411	827.89
746.599	1487.34
746.788	1268.2
746.976	-1005.04
747.165	92.67
747.353	850.42
747.541	5048.75
747.73	-2704.85
747.918	2712.02
748.106	1952.23
748.295	2832.85
748.483	1939.94
748.671	1427.95
748.859	1237.49
749.048	2996.69
749.236	1067.5
749.424	649.72
749.612	3187.15
749.8	1151.47
749.989	1315.31
750.177	1993.19
750.365	2474.46
750.553	2529.75
750.741	-1310.19
750.929	5499.31
751.117	1051.12
751.305	2388.44
751.493	1071.6
751.681	-323.07
751.869	1473
752.057	2992.59
752.245	1151.47
752.433	3299.79
752.621	2128.35
752.809	3275.21
752.997	3129.81
753.185	2806.23
753.373	2046.43
753.56	1673.7
753.748	3054.03
753.936	2228.7
754.124	2867.67
754.312	1602.02
754.499	4391.36
754.687	3115.47
754.875	3799.49
755.063	1720.81
755.25	3709.38
755.438	4469.18
755.626	3645.9
755.813	1464.81
756.001	3574.22
756.189	1419.75
756.376	1886.69
756.564	2585.05
756.751	4549.05
756.939	954.87
757.127	4966.84
757.314	2599.38
757.502	1192.43
757.689	4594.11
757.877	3711.43
758.064	3772.87
758.251	1737.19
758.439	3901.89
758.626	5024.18
758.814	1991.14
759.001	4518.33
759.188	4692.41
759.376	186.88
759.563	3871.17
759.75	4131.26
759.938	2191.84
760.125	2081.25
760.312	2922.96
760.5	2605.53
760.687	3932.61
760.874	1661.41
761.061	3996.1
761.248	152.06
761.436	6447.52
761.623	2556.38
761.81	3170.77
761.997	4297.15
762.184	2349.53
762.371	2179.55
762.558	2820.56
762.745	4565.43
762.932	3166.67
763.119	3549.64
763.306	3207.63
763.493	3293.65
763.68	3613.13
763.867	4798.9
764.054	1677.8
764.241	2357.72
764.428	4651.45
764.615	3056.08
764.802	3064.27
764.989	2179.55
765.176	3240.4
765.362	4297.15
765.549	2693.59
765.736	9906.54
765.923	4825.53
766.11	4581.82
766.296	3039.7
766.483	510.46
766.67	3322.32
766.857	4260.29
767.043	2081.25
767.23	3563.98
767.417	5079.47
767.603	4155.84
767.79	2937.3
767.976	5587.37
768.163	5196.21
768.35	4248
768.536	3135.95
768.723	3099.09
768.909	5052.85
769.096	5747.11
769.282	3445.2
769.469	2828.76
769.655	6035.88
769.842	4204.99
770.028	2142.69
770.214	3711.43
770.401	3930.56
770.587	2839
770.774	657.91
770.96	446.97
771.146	4008.39
771.333	4364.73
771.519	2931.16
771.705	4024.77
771.891	2619.86
772.078	8010.12
772.264	4501.95
772.45	3342.8
772.636	3738.05
772.822	3312.08
773.009	7084.44
773.195	4295.1
773.381	4612.54
773.567	4762.04
773.753	2998.74
773.939	2101.73
774.125	1993.19
774.311	3740.1
774.497	2339.29
774.683	3056.08
774.869	5431.73
775.055	6822.3
775.241	2970.07
775.427	4338.11
775.613	2861.52
775.799	6119.84
775.985	2759.13
776.171	4016.58
776.357	4243.9
776.543	4000.19
776.729	3307.98
776.914	4200.9
777.1	5517.74
777.286	7723.4
777.472	3992
777.657	3561.93
777.843	7004.57
778.029	6795.67
778.215	4682.17
778.4	3961.28
778.586	7235.99
778.772	5972.39
778.957	5495.21
779.143	3387.85
779.329	4573.63
779.514	3443.15
779.7	4678.07
779.885	2785.75
780.071	5134.77
780.256	5333.42
780.442	4868.53
780.627	2808.28
780.813	6011.3
780.998	6754.71
781.184	5593.51
781.369	3770.82
781.555	6089.12
781.74	4774.33
781.925	6916.5
782.111	4219.33
782.296	5034.42
782.481	5659.05
782.667	5001.65
782.852	6410.65
783.037	4739.51
783.223	4716.98
783.408	4987.32
783.593	6216.1
783.778	4354.49
783.963	5800.36
784.149	6267.3
784.334	4819.38
784.519	5312.94
784.704	4078.02
784.889	5626.28
785.074	4430.27
785.259	5200.3
785.444	7997.83
785.629	4096.45
785.814	3533.26
785.999	5392.81
786.184	8663.42
786.369	4995.51
786.554	3979.72
786.739	7399.82
786.924	6707.61
787.109	6445.47
787.294	7805.32
787.479	7958.92
787.664	6711.71
787.849	8372.61
788.034	8239.49
788.218	9199.99
788.403	9030.01
788.588	10316.13
788.773	10418.53
788.957	9777.51
789.142	12640.58
789.327	12429.63
789.512	12656.96
789.696	16873.73
789.881	18229.48
790.066	15806.73
790.25	19288.28
790.435	17582.32
790.619	20185.29
790.804	20295.88
790.989	20213.96
791.173	24162.45
791.358	22296.75
791.542	21418.17
791.727	22681.77
791.911	23148.7
792.096	22692.01
792.28	23654.55
792.465	23797.91
792.649	24690.82
792.833	25622.65
793.018	24864.9
793.202	26275.95
793.386	28440.65
793.571	27424.86
793.755	26746.98
793.939	25276.54
794.124	26435.69
794.308	26562.67
794.492	26155.12
794.676	25479.29
794.861	26343.53
795.045	27246.69
795.229	24082.58
795.413	26511.47
795.597	24832.13
795.781	24731.78
795.966	26939.49
796.15	24201.36
796.334	27807.83
796.518	25348.22
796.702	21749.94
796.886	22579.37
797.07	23486.62
797.254	21856.43
797.438	19497.17
797.622	18397.42
797.806	18860.26
797.99	19589.33
798.174	17762.54
798.358	19106.01
798.541	19007.71
798.725	18886.88
798.909	15913.23
799.093	16158.99
799.277	15558.93
799.461	16623.87
799.644	12013.9
799.828	14477.6
800.012	16511.24
800.196	13941.04
800.379	13740.33
800.563	12192.07
800.747	15321.37
800.93	13248.82
801.114	12886.33
801.298	11815.24
801.481	15073.56
801.665	14778.65
801.848	10967.38
802.032	12278.08
802.216	15626.51
802.399	12116.3
802.583	10924.38
802.766	10113.38
802.95	12812.6
803.133	13611.31
803.317	10604.89
803.5	10230.12
803.683	12038.47
803.867	10389.86
804.05	12763.45
804.233	13427
804.417	13828.4
804.6	10981.72
804.783	11891.02
804.967	13207.86
805.15	12040.52
805.333	11495.76
805.517	11753.8
805.7	9632.11
805.883	10791.26
806.066	12104.01
806.249	12466.5
806.432	9118.07
806.616	11213.14
806.799	9103.73
806.982	9896.3
807.165	10735.96
807.348	10635.61
807.531	9296.24
807.714	9587.05
807.897	10510.69
808.08	10914.14
808.263	11579.73
808.446	11141.46
808.629	10037.61
808.812	9431.41
808.995	9869.67
809.178	11858.25
809.361	11178.33
809.544	11198.81
809.726	12468.55
809.909	11127.13
810.092	10393.95
810.275	11159.89
810.458	12894.52
810.64	11000.15
810.823	10553.69
811.006	9900.39
811.189	11811.15
811.371	8837.5
811.554	9656.68
811.737	10922.33
811.919	11139.41
812.102	9023.86
812.285	7530.89
812.467	10490.21
812.65	9191.8
812.832	8595.84
813.015	11133.27
813.197	10899.8
813.38	10770.78
813.562	11671.89
813.745	7915.91
813.927	7756.17
814.11	10596.7
814.292	9001.33
814.475	8180.1
814.657	8851.83
814.839	10199.4
815.022	8178.05
815.204	12302.66
815.386	11907.4
815.569	10883.42
815.751	7225.75
815.933	10482.02
816.116	10582.37
816.298	10475.87
816.48	8952.18
816.662	8182.15
816.844	9689.45
817.027	9374.06
817.209	8495.49
817.391	7739.79
817.573	8917.37
817.755	8769.91
817.937	9298.29
818.119	8241.54
818.301	8378.75
818.483	8733.05
818.665	8094.08
818.847	9691.5
819.029	9279.86
819.211	7430.54
819.393	8788.35
819.575	11204.95
819.757	10572.13
819.939	9206.13
820.121	8694.14
820.303	8724.86
820.485	11598.16
820.666	10793.31
820.848	10639.71
821.03	8212.87
821.212	9775.47
821.394	6504.86
821.575	8845.69
821.757	10103.14
821.939	8593.79
822.121	8808.83
822.302	10735.96
822.484	9582.96
822.666	5945.77
822.847	7338.38
823.029	5089.71
823.21	8946.04
823.392	5935.53
823.573	7575.95
823.755	6203.81
823.937	6465.95
824.118	6455.71
824.3	12245.32
824.481	6470.05
824.662	6873.5
824.844	7190.93
825.025	8311.17
825.207	5654.95
825.388	7029.14
825.569	5702.06
825.751	6201.76
825.932	9650.54
826.113	5190.06
826.295	8100.23
826.476	7602.57
826.657	6902.17
826.839	6414.75
827.02	7569.8
827.201	9906.54
827.382	6408.61
827.563	7774.6
827.744	6312.35
827.926	6994.33
828.107	8231.3
828.288	5005.75
828.469	7197.07
828.65	7602.57
828.831	4469.18
829.012	6349.22
829.193	8186.24
829.374	5597.61
829.555	8393.09
829.736	11098.45
829.917	9204.08
830.098	7682.44
830.279	3862.98
830.46	5079.47
830.641	6306.21
830.822	6082.98
831.002	7657.87
831.183	4925.88
831.364	7211.41
831.545	7147.92
831.726	5751.21
831.906	5407.15
832.087	6887.83
832.268	6547.87
832.449	7592.33
832.629	3787.21
832.81	5265.84
832.991	4710.84
833.171	6263.2
833.352	5892.52
833.532	7145.87
833.713	4905.4
833.894	5321.13
834.074	3381.71
834.255	4405.69
834.435	4417.98
834.616	4565.43
834.796	4622.78
834.977	6242.72
835.157	8272.26
835.338	4268.48
835.518	3283.41
835.698	5284.27
835.879	4100.55
836.059	5206.45
836.239	5102
836.42	4956.6
836.6	5499.31
836.78	3008.98
836.961	3989.96
837.141	6408.61
837.321	3543.5
837.501	8079.75
837.682	4006.34
837.862	4694.46
838.042	9832.81
838.222	3934.66
838.402	4235.71
838.582	4559.29
838.763	5280.18
838.943	4161.98
839.123	6470.05
839.303	4833.72
839.483	5908.9
839.663	2212.32
839.843	14313.77
840.023	6357.41
840.203	5849.51
840.383	4170.18
840.563	3793.35
840.742	4547
840.922	3551.69
841.102	5353.9
841.282	4411.84
841.462	4491.71
841.642	4059.59
841.822	3133.9
842.001	1987.04
842.181	5196.21
842.361	5337.52
842.541	6056.36
842.72	5071.28
842.9	4041.15
843.08	4712.89
843.259	3744.2
843.439	4127.17
843.619	3367.37
843.798	4245.95
843.978	5280.18
844.157	3635.66
844.337	5130.67
844.517	3408.33
844.696	6205.86
844.876	5132.72
845.055	2998.74
845.235	5263.79
845.414	4415.93
845.593	2816.47
845.773	3283.41
845.952	1483.24
846.132	2384.35
846.311	2496.99
846.49	4903.35
846.67	4759.99
846.849	3133.9
847.028	2456.03
847.208	5003.7
847.387	3123.66
847.566	6265.25
847.745	2875.86
847.924	4794.81
848.104	4766.14
848.283	4716.98
848.462	5388.72
848.641	5935.53
848.82	3862.98
848.999	6048.16
849.178	3414.48
849.358	5179.82
849.537	4125.12
849.716	3094.99
849.895	2456.03
850.074	5677.48
850.253	5822.89
850.432	4266.43
850.61	3826.12
850.789	3195.34
850.968	6035.88
851.147	5804.46
851.326	2824.66
851.505	3926.47
851.684	4286.91
851.863	5581.23
852.041	4164.03
852.22	3703.24
852.399	2953.68
852.578	4702.65
852.756	2118.11
852.935	3535.31
853.114	5452.2
853.293	2554.33
853.471	6767
853.65	4475.32
853.828	3330.51
854.007	2793.94
854.186	4426.17
854.364	5505.45
854.543	4628.92
854.721	3422.67
854.9	4874.68
855.078	6009.25
855.257	3303.89
855.435	987.63
855.614	4108.74
855.792	3291.6
855.971	3361.23
856.149	1880.55
856.327	4610.49
856.506	4010.43
856.684	3129.81
856.862	2683.35
857.041	373.24
857.219	5294.51
857.397	2869.72
857.576	3226.06
857.754	2978.26
857.932	4807.09
858.11	3402.19
858.288	3529.16
858.467	1690.09
858.645	1868.26
858.823	3281.36
859.001	4143.55
859.179	2173.41
859.357	2861.52
859.535	4510.14
859.713	5161.39
859.891	4483.52
860.069	6955.41
860.247	3015.12
860.425	1497.58
860.603	4374.97
860.781	5616.04
860.959	4055.49
861.137	1315.31
861.315	2163.17
861.493	3836.36
861.67	5042.61
861.848	4897.21
862.026	2746.84
862.204	2722.26
862.382	3271.12
862.559	3334.61
862.737	4516.28
862.915	4823.48
863.093	3039.7
863.27	4936.12
863.448	5138.87
863.626	3795.4
863.803	3303.89
863.981	2404.83
864.158	1012.21
864.336	2525.66
864.514	2202.08
864.691	1823.2
864.869	2466.27
865.046	2148.83
865.224	3531.21
865.401	4807.09
865.578	2417.12
865.756	5605.8
865.933	795.12
866.111	4839.86
866.288	2058.72
866.465	2953.68
866.643	1790.44
866.82	2456.03
866.997	2595.29
867.175	2949.59
867.352	2685.4
867.529	610.81
867.706	2136.54
867.884	3512.78
868.061	3099.09
868.238	2494.94
868.415	1704.42
868.592	2234.85
868.77	2245.09
868.947	4405.69
869.124	2496.99
869.301	1098.22
869.478	3310.03
869.655	55.81
869.832	3148.24
870.009	5581.23
870.186	5548.46
870.363	3291.6
870.54	3164.62
870.717	2619.86
870.894	2918.87
871.071	3672.52
871.247	1378.79
871.424	2187.74
871.601	2845.14
871.778	2013.67
871.955	2834.9
872.132	3475.91
872.308	3107.28
872.485	2834.9
872.662	2175.45
872.839	4811.19
873.015	2185.69
873.192	3269.07
873.369	3379.66
873.545	2496.99
873.722	3215.82
873.898	2965.97
874.075	2343.39
874.252	3146.19
874.428	2550.23
874.605	3019.22
874.781	-335.35
874.958	1698.28
875.134	3543.5
875.311	3295.69
875.487	3500.49
875.663	5069.23
875.84	3070.42
876.016	4004.29
876.193	3555.79
876.369	1735.14
876.545	1708.52
876.722	1685.99
876.898	2826.71
877.074	3230.16
877.25	3932.61
877.427	8087.94
877.603	2447.83
877.779	2343.39
877.955	2703.83
878.132	4741.56
878.308	4370.88
878.484	5878.18
878.66	1292.78
878.836	3152.34
879.012	2724.31
879.188	3213.77
879.364	2894.29
879.54	2134.5
879.716	1169.9
879.892	2789.85
880.068	4420.03
880.244	5978.53
880.42	1726.95
880.596	2357.72
880.772	2114.02
880.948	1751.53
881.124	3555.79
881.3	7289.23
881.475	2726.36
881.651	2617.82
881.827	2265.57
882.003	2615.77
882.178	-245.24
882.354	2292.19
882.53	1843.68
882.706	2791.89
882.881	3205.58
883.057	1188.33
883.233	2652.63
883.408	4530.62
883.584	1608.17
883.759	1022.45
883.935	913.91
884.111	502.26
884.286	2093.54
884.462	238.08
884.637	1980.9
884.813	645.62
884.988	2238.94
885.164	5700.01
885.339	1174
885.514	4121.03
885.69	1597.93
885.865	721.4
886.04	3244.49
886.216	1847.78
886.391	3408.33
886.566	2525.66
886.742	479.74
886.917	2748.89
887.092	4901.3
887.267	854.51
887.443	-28.16
887.618	1470.95
887.793	1434.09
887.968	2904.53
888.143	686.58
888.318	2537.95
888.494	3561.93
888.669	2388.44
888.844	2357.72
889.019	2126.3
889.194	1751.53
889.369	1427.95
889.544	1628.65
889.719	3924.42
889.894	4997.56
890.069	3162.58
890.243	3402.19
890.418	1984.99
890.593	1223.15
890.768	2464.22
890.943	4385.21
891.118	2126.3
891.293	2566.62
891.467	1325.55
891.642	5267.89
891.817	1964.51
891.992	2925.01
892.166	1348.08
892.341	3758.53
892.516	2408.92
892.69	2730.45
892.865	420.35
893.04	2302.43
893.214	3813.83
893.389	3176.91
893.563	5233.07
893.738	5646.76
893.912	1720.81
894.087	2867.67
894.261	4010.43
894.436	1436.14
894.61	4993.46
894.785	2603.48
894.959	2458.07
895.134	4325.82
895.308	1233.39
895.482	3477.96
895.657	1186.29
895.831	1464.81
896.005	7915.91
896.18	1677.8
896.354	2679.26
896.528	363
896.702	2601.43
896.877	4274.62
897.051	823.8
897.225	2937.3
897.399	2982.35
897.573	1630.7
897.747	2685.4
897.922	2413.02
898.096	4256.19
898.27	590.33
898.444	1614.31
898.618	2593.24
898.792	2439.64
898.966	2646.49
899.14	3121.62
899.314	2980.31
899.488	4313.53
899.662	2271.71
899.835	2449.88
900.009	2288.09
900.183	444.92
900.357	5585.32
900.531	1386.99
900.705	1286.64
900.878	-484.86
901.052	582.14
901.226	2970.07
901.4	2462.17
901.573	850.42
901.747	-460.28
901.921	1491.43
902.095	1956.32
902.268	3230.16
902.442	-421.37
902.615	-1125.87
902.789	2818.52
902.963	6637.98
903.136	655.86
903.31	3678.66
903.483	-843.25
903.657	2996.69
903.83	1133.04
904.004	-2952.66
904.177	1042.93
904.35	252.41
904.524	-2878.93
904.697	1038.83
904.871	1163.76
905.044	2134.5
905.217	5353.9
905.391	3787.21
905.564	1739.24
905.737	1206.77
905.91	-278.01
906.084	-2954.71
906.257	1010.16
906.43	-2923.99
906.603	221.69
906.776	-3788.23
906.949	-1549.8
907.123	-1955.3
907.296	-712.18
907.469	2601.43
907.642	-613.88
907.815	2005.47
907.988	-374.27
908.161	-904.69
908.334	-1500.65
908.507	1487.34
908.68	1012.21
908.853	520.7
909.026	-777.72
909.199	-650.74
909.371	2947.54
909.544	2142.69
909.717	295.42
909.89	-2006.5
910.063	-2303.45
910.236	399.87
910.408	762.36
910.581	-2985.43
910.754	-3061.2
910.927	-3653.06
911.099	657.91
911.272	1102.32
911.445	111.1
911.617	-337.4
911.79	2320.86
911.962	-304.64
912.135	-1734.12
912.308	489.98
912.48	-2897.36
912.653	-2072.03
912.825	-1719.78
912.998	-366.07
913.17	1751.53
913.343	1987.04
913.515	-1453.55
913.687	-2239.97
913.86	633.33
914.032	2195.93
914.205	-974.32
914.377	379.39
914.549	-3861.96
914.721	1235.44
914.894	-2602.46
915.066	-169.47
915.238	-2598.36
915.41	2675.16
915.583	500.22
915.755	-2483.67
915.927	285.18
916.099	1761.77
916.271	-1355.24
916.443	-2663.9
916.616	-3282.38
916.788	21057.73
916.96	2845.14
917.132	-3849.67
917.304	-142.85
917.476	2240.99
917.648	320
917.82	-3657.16
917.992	1567.21
918.164	1473
918.335	295.42
918.507	1755.62
918.679	-3587.53
918.851	2163.17
919.023	-1009.14
919.195	637.43
919.366	-3347.92
919.538	-3210.7
919.71	-2504.15
919.882	-1824.23
920.053	-2872.79
920.225	-2020.83
920.397	2046.43
920.568	-2278.88
920.74	-1813.99
920.912	-1732.07
921.083	-2721.24
921.255	-2874.84
921.426	-3263.95
921.598	57.86
921.77	-1983.97
921.941	-2887.12
922.113	-2860.5
922.284	1833.44
922.455	-2174.43
922.627	-3145.17
922.798	-3079.63
922.97	-2579.93
923.141	-2549.21
923.312	-3749.32
923.484	1071.6
923.655	-3010
923.826	1042.93
923.998	-1342.96
924.169	1393.13
924.34	-2479.58
924.511	-91.65
924.683	-112.13
924.854	-2080.22
925.025	-294.4
925.196	1169.9
925.367	1348.08
925.538	332.28
925.709	-495.1
925.881	725.49
926.052	-1807.84
926.223	-876.02
926.394	1346.03
926.565	-1678.82
926.736	-3788.23
926.907	-2821.59
927.078	649.72
927.248	4372.93
927.419	1245.68
927.59	-3771.85
927.761	1415.66
927.932	1106.42
928.103	-181.76
928.274	-1994.21
928.444	-693.75
928.615	-2323.93
928.786	-1654.25
928.957	-3298.77
929.127	-2029.03
929.298	53.76
929.469	-1740.26
929.639	-751.09
929.81	-511.48
929.981	-157.18
930.151	872.95
930.322	3602.89
930.492	948.72
930.663	3750.34
930.833	-2205.15
931.004	-468.47
931.174	692.73
931.345	23.04
931.515	-2491.87
931.686	-290.3
931.856	2679.26
932.027	-3128.78
932.197	1538.54
932.367	-2999.76
932.538	1884.64
932.708	-2260.45
932.878	338.43
933.048	-968.18
933.219	-1852.9
933.389	2347.48
933.559	-2264.54
933.729	-3003.86
933.9	518.65
934.07	-3139.02
934.24	-3352.01
934.41	207.36
934.58	-67.07
934.75	1059.31
934.92	-3698.12
935.09	494.07
935.26	-2053.6
935.43	2814.42
935.6	-880.11
935.77	1124.85
935.94	586.23
936.11	-2258.4
936.28	-2442.71
936.45	1561.06
936.62	236.03
936.79	717.3
936.96	-462.33
937.129	-1170.93
937.299	285.18
937.469	-339.45
937.639	463.35
937.808	-1093.1
937.978	-3089.87
938.148	1841.64
938.317	324.09
938.487	688.63
938.657	-2459.1
938.826	-2635.22
938.996	-421.37
939.166	-3843.53
939.335	-3048.91
939.505	-208.38
939.674	-1555.94
939.844	-3112.4
940.013	391.67
940.183	-3190.22
940.352	-2880.98
940.522	-779.76
940.691	-1816.04
940.86	725.49
941.03	-1035.76
941.199	295.42
941.368	944.63
941.538	1741.29
941.707	-2721.24
941.876	-710.13
942.046	1391.08
942.215	-398.84
942.384	-2977.23
942.553	-441.85
942.722	-1127.92
942.892	2091.49
943.061	-3708.36
943.23	741.88
943.399	4043.2
943.568	-1297.9
943.737	2562.52
943.906	205.31
944.075	-2452.95
944.244	1710.57
944.413	-929.27
944.582	-3771.85
944.751	96.77
944.92	-1031.66
945.089	1182.19
945.258	-941.55
945.427	-787.96
945.596	-1199.6
945.764	-292.35
945.933	-1754.6
946.102	1700.33
946.271	-1607.14
946.44	-792.05
946.608	-2262.49
946.777	-1725.93
946.946	-568.82
947.114	2640.34
947.283	-1123.82
947.452	-2645.46
947.62	-2252.25
947.789	1395.18
947.958	-1844.71
948.126	506.36
948.295	291.32
948.463	-1066.48
948.632	-1635.82
948.8	-1263.08
948.969	-2872.79
949.137	-624.12
949.305	-2772.44
949.474	1130.99
949.642	915.95
949.811	1059.31
949.979	-345.59
950.147	-2944.47
950.316	-3030.48
950.484	-3042.77
950.652	-2078.18
950.82	1964.51
950.989	-3433.93
951.157	-2405.85
951.325	-3325.39
951.493	2134.5
951.661	887.28
951.83	1116.65
951.998	-3732.94
952.166	-1271.28
952.334	-2903.51
952.502	3488.2
952.67	1462.76
952.838	944.63
953.006	2996.69
953.174	631.29
953.342	715.25
953.51	-218.62
953.678	-1279.47
953.846	-3630.54
954.014	80.38
954.181	2728.41
954.349	-2649.56
954.517	-2622.94
954.685	-2889.17
954.853	-2166.24
955.02	-2788.82
955.188	-3261.9
955.356	-2153.95
955.524	1712.61
955.691	-1113.58
955.859	-2655.7
956.027	-488.95
956.194	3305.93
956.362	-2006.5
956.529	1362.41
956.697	-1826.28
956.865	805.36
957.032	1917.41
957.2	-3108.3
957.367	-3294.67
957.535	799.22
957.702	1288.68
957.87	-3053.01
958.037	666.1
958.204	-1990.11
958.372	1487.34
958.539	637.43
958.706	-466.42
958.874	3727.82
959.041	473.59
959.208	-3065.3
959.376	-1992.16
959.543	1499.63
959.71	-271.87
959.877	1872.36
960.044	31.23
960.212	3230.16
960.379	3643.85
960.546	874.99
960.713	-3663.3
960.88	-916.98
961.047	-97.79
961.214	24832.13
961.381	2910.68
961.548	-1496.55
961.715	-873.97
961.882	-3296.72
962.049	-1021.42
962.216	-1258.99
962.383	-2473.43
962.55	-916.98
962.717	2286.05
962.883	1329.64
963.05	3021.27
963.217	1102.32
963.384	-1996.26
963.551	-677.37
963.717	-2457.05
963.884	446.97
964.051	850.42
964.218	1821.16
964.384	6152.61
964.551	-2803.16
964.717	-3716.55
964.884	-1199.6
965.051	-2528.73
965.217	-3046.87
965.384	-3681.74
965.55	1710.57
965.717	1176.05
965.883	410.11
966.05	-1990.11
966.216	2843.09
966.383	1372.65
966.549	303.61
966.716	-1222.13
966.882	-2862.55
967.048	-2354.65
967.215	-3352.01
967.381	-1703.4
967.547	2474.46
967.713	2757.08
967.88	1079.79
968.046	-3466.7
968.212	-1508.84
968.378	1548.78
968.545	-3349.96
968.711	1630.7
968.877	-906.74
969.043	-271.87
969.209	-2893.27
969.375	1702.37
969.541	2576.86
969.707	3262.93
969.873	1855.97
970.039	-660.98
970.205	2202.08
970.371	5177.78
970.537	2171.36
970.703	709.11
970.869	-1295.85
971.035	2284
971.201	657.91
971.367	-2508.25
971.532	-769.52
971.698	-1107.44
971.864	2015.71
972.03	-3124.69
972.195	-2237.92
972.361	2634.2
972.527	-1674.73
972.693	3764.68
972.858	2267.61
973.024	-3024.34
973.19	-263.68
973.355	619
973.521	1018.35
973.686	1903.07
973.852	-3550.67
974.017	4624.83
974.183	-3155.41
974.348	764.4
974.514	-3253.71
974.679	-11.78
974.845	-2373.08
975.01	-708.09
975.175	-3700.17
975.341	17721.59
975.506	-185.85
975.672	844.28
975.837	4270.53
976.002	285.18
976.167	-1418.73
976.333	5216.69
976.498	-925.17
976.663	-2819.54
976.828	1409.51
976.993	-2045.41
977.159	555.51
977.324	991.73
977.489	3725.77
977.654	-333.31
977.819	-1234.41
977.984	-392.7
978.149	3412.43
978.314	1950.18
978.479	-1373.68
978.644	-2938.32
978.809	-1132.01
978.974	-2766.29
979.139	2564.57
979.304	313.85
979.469	-1414.63
979.633	-1357.29
979.798	-302.59
979.963	-2508.25
980.128	3541.45
980.293	-3065.3
980.457	-2115.04
980.622	-3409.36
980.787	-2672.09
980.951	-468.47
981.116	-136.7
981.281	-2735.57
981.445	-138.75
981.61	1294.83
981.775	-2403.8
981.939	-3724.74
982.104	2601.43
982.268	1706.47
982.433	2036.19
982.597	-2366.94
982.762	3281.36
982.926	1122.8
983.091	-644.6
983.255	-3456.46
983.419	-2682.33
983.584	2271.71
983.748	373.24
983.912	-5.63
984.077	2675.16
984.241	2617.82
984.405	-2702.81
984.57	2484.7
984.734	-329.21
984.898	-443.9
985.062	-1576.42
985.226	-2315.74
985.39	3205.58
985.555	8.7
985.719	2699.73
985.883	573.94
986.047	-2024.93
986.211	1026.54
986.375	403.96
986.539	-2180.57
986.703	-1967.59
986.867	-38.4
987.031	1307.12
987.195	-1584.62
987.359	-2457.05
987.523	471.54
987.686	-2878.93
987.85	-3028.43
988.014	1229.29
988.178	-1912.29
988.342	1487.34
988.506	969.2
988.669	-310.78
988.833	479.74
988.997	1432.04
989.16	-658.93
989.324	-17.92
989.488	3408.33
989.651	604.66
989.815	3830.21
989.979	-1261.04
990.142	221.69
990.306	-394.75
990.469	2304.48
990.633	1726.95
990.796	2673.11
990.96	-503.29
991.123	373.24
991.286	2421.21
991.45	1536.49
991.613	-2274.78
991.777	-3204.56
991.94	-3016.15
992.103	797.17
992.267	3428.81
992.43	-1289.71
992.593	901.62
992.756	528.89
992.92	1042.93
993.083	1038.83
993.246	113.15
993.409	-3442.12
993.572	-3114.45
993.735	-724.47
993.899	811.51
994.062	-923.12
994.225	-1082.86
994.388	694.77
994.551	3109.33
994.714	-517.62
994.877	-298.49
995.04	-2639.32
995.203	-1885.67
995.366	1575.4
995.528	-1709.54
995.691	1534.44
995.854	-2291.17
996.017	-1299.95
996.18	-3511.75
996.343	-458.23
996.505	2400.73
996.668	1098.22
996.831	-267.77
996.994	-605.69
997.156	-183.81
997.319	-2168.29
997.482	2197.98
997.644	-2680.28
997.807	1772
997.97	-3089.87
998.132	-1422.83
998.295	1724.9
998.457	842.23
998.62	-1893.86
998.782	-2354.65
998.945	563.7
999.107	287.23
999.27	168.45
999.432	-738.8
999.594	1004.02
999.757	2490.84
999.919	379.39
1000.081	-3122.64
1000.244	-261.63
1000.406	-17.92
1000.568	-269.82
1000.731	2363.87
1000.893	2251.23
1001.055	2077.15
1001.217	-1125.87
1001.379	-3239.37
1001.542	-2223.58
1001.704	3676.62
1001.866	-1535.46
1002.028	1677.8
1002.19	715.25
1002.352	-1705.45
1002.514	-2528.73
1002.676	5826.98
1002.838	2220.51
1003	-638.45
1003.162	-2178.53
1003.324	2822.61
1003.486	1798.63
1003.648	-1517.03
1003.809	-1000.94
1003.971	1704.42
1004.133	78.33
1004.295	-136.7
1004.457	-884.21
1004.618	1278.44
1004.78	571.9
1004.942	4323.77
1005.104	-71.17
1005.265	-1916.39
1005.427	1286.64
1005.589	-851.44
1005.75	485.88
1005.912	2529.75
1006.073	862.71
1006.235	606.71
1006.396	-503.29
1006.558	170.49
1006.72	145.92
1006.881	881.14
1007.042	-2307.55
1007.204	-2719.19
1007.365	-2049.5
1007.527	1741.29
1007.688	3512.78
1007.849	543.22
1008.011	86.53
1008.172	707.06
1008.333	1208.81
1008.495	-237.05
1008.656	-3247.57
1008.817	1796.58
1008.978	2998.74
1009.139	-570.87
1009.301	1071.6
1009.462	-3272.14
1009.623	1335.79
1009.784	-1811.94
1009.945	387.58
1010.106	1458.67
1010.267	408.06
1010.428	-1889.76
1010.589	-3306.96
1010.75	487.93
1010.911	-2203.1
1011.072	-3270.09
1011.233	1389.03
1011.394	-472.57
1011.555	199.16
1011.716	1159.66
1011.877	-2278.88
1012.037	930.29
1012.198	-2340.32
1012.359	1180.14
1012.52	-2258.4
1012.68	-257.53
1012.841	45.57
1013.002	909.81
1013.163	-1459.69
1013.323	619
1013.484	-2964.95
1013.644	-1869.28
1013.805	1139.18
1013.966	-439.8
1014.126	3062.23
1014.287	-681.46
1014.447	-482.81
1014.608	1997.28
1014.768	-2448.86
1014.929	1839.59
1015.089	-2184.67
1015.249	735.73
1015.41	49.66
1015.57	1397.23
1015.731	-3290.57
1015.891	-679.41
1016.051	887.28
1016.211	-466.42
1016.372	2087.39
1016.532	-953.84
1016.692	-656.89
1016.852	1186.29
1017.013	-1037.81
1017.173	-30.21
1017.333	-1988.07
1017.493	-566.78
1017.653	-2323.93
1017.813	-2973.14
1017.973	-634.36
1018.133	-2190.81
1018.293	-2905.56
1018.453	-110.08
1018.613	-3104.21
1018.773	2697.69
1018.933	-148.99
1019.093	1464.81
1019.253	-69.12
1019.413	1901.03
1019.573	-3415.5
1019.733	-134.65
1019.892	2593.24
1020.052	-425.47
1020.212	903.67
1020.372	575.99
1020.531	2077.15
1020.691	72.19
1020.851	-159.23
1021.01	772.6
1021.17	487.93
1021.33	-302.59
1021.489	-2866.64
1021.649	324.09
1021.808	-105.98
1021.968	860.66
1022.127	-3655.11
1022.287	2599.38
1022.446	-1170.93
1022.606	1309.16
1022.765	-2260.45
1022.925	3164.62
1023.084	1370.6
1023.244	2413.02
1023.403	-753.14
1023.562	-1541.61
1023.722	-947.7
1023.881	-454.14
1024.04	-300.54
1024.199	1241.58
1024.359	27.14
1024.518	-3149.26
1024.677	-1093.1
1024.836	-990.7
1024.995	1145.33
1025.154	-1199.6
1025.313	-116.22
1025.473	-1900
1025.632	-2399.71
1025.791	1413.61
1025.95	-2348.51
1026.109	-931.31
1026.268	27.14
1026.427	1901.03
1026.586	2370.01
1026.744	377.34
1026.903	6457.76
1027.062	39.42
1027.221	1581.54
1027.38	784.88
1027.539	1493.48
1027.698	5280.18
1027.856	-1945.06
1028.015	1188.33
1028.174	739.83
1028.333	936.43
1028.491	4755.9
1028.65	2202.08
1028.808	4422.08
1028.967	1389.03
1029.126	1071.6
1029.284	-2729.43
1029.443	379.39
1029.601	-527.86
1029.76	-2682.33
1029.918	-1623.53
1030.077	1229.29
1030.235	2802.13
1030.394	-1074.67
1030.552	1706.47
1030.711	3154.38
1030.869	-550.39
1031.027	-1023.47
1031.186	-3358.16
1031.344	-2192.86
1031.502	-46.59
1031.661	1792.48
1031.819	2628.06
1031.977	1739.24
1032.135	-2227.68
1032.293	-1496.55
1032.452	-2305.5
1032.61	4225.47
1032.768	-2403.8
1032.926	281.08
1033.084	3733.96
1033.242	-1414.63
1033.4	-2135.52
1033.558	1343.98
1033.716	-243.2
1033.874	-1570.28
1034.032	254.46
1034.19	-239.1
1034.348	2830.8
1034.506	-3018.19
1034.664	1161.71
1034.822	-2782.68
1034.979	3236.3
1035.137	1348.08
1035.295	94.72
