Data from TmLN Sample 3_USBC44471_15-11-12-370.txt Node
Date: Wed Jul 29 15:11:12 MDT 2020
User: Montana Instruments
Spectrometer: USBC4447
Scans to average: 1
Trigger mode: 4
Integration Time (sec): 1.000000E1
Electric dark correction enabled: true
Boxcar width: 0
XAxis mode: Wavelengths
Number of Pixels in Spectrum: 3648
>>>>>Begin Spectral Data<<<<<
344.991	-5370.8
345.205	-5370.8
345.419	-5370.8
345.633	-5297.07
345.847	-5317.55
346.061	-363.51
346.275	1053.68
346.489	-1238
346.703	-48.13
346.917	-1723.37
347.131	1094.64
347.345	-746.48
347.559	-932.85
347.773	1426.41
347.986	-146.43
348.2	2806.74
348.414	-1182.7
348.628	-832.5
348.842	-1049.58
349.056	-1231.85
349.269	355.32
349.483	1356.78
349.697	1571.82
349.911	1412.07
350.125	-1076.21
350.338	349.18
350.552	812.02
350.766	-672.76
350.979	-1551.34
351.193	-82.94
351.407	5315.5
351.621	-134.14
351.834	-1504.23
352.048	2204.64
352.262	-455.67
352.475	3458
352.689	992.24
352.902	1649.64
353.116	-95.23
353.33	-1475.56
353.543	-1119.21
353.757	347.13
353.971	160.77
354.184	216.06
354.398	-396.28
354.611	697.33
354.825	2716.63
355.038	1194.99
355.252	-252.92
355.465	-322.56
355.679	-1848.29
355.892	676.85
356.106	1188.85
356.319	7533.45
356.533	-490.49
356.746	-334.84
356.96	-736.24
357.173	-1420.27
357.386	1324.01
357.6	-764.92
357.813	-1033.2
358.027	-1991.65
358.24	-822.26
358.453	2520.03
358.667	-1422.31
358.88	1070.06
359.094	-1090.54
359.307	330.75
359.52	-375.8
359.733	2173.92
359.947	-2321.37
360.16	1260.52
360.373	1854.44
360.587	-1217.52
360.8	-656.37
361.013	-443.39
361.226	-934.9
361.44	2556.89
361.653	1641.45
361.866	-1041.39
362.079	-2071.52
362.292	181.25
362.506	3343.31
362.719	648.18
362.932	2937.81
363.145	-44.03
363.358	-891.89
363.571	-1420.27
363.785	-257.02
363.998	1227.76
364.211	1858.53
364.424	-1317.87
364.637	1147.89
364.85	-736.24
365.063	1907.68
365.276	158.72
365.489	-1522.66
365.702	-390.14
365.915	306.17
366.128	-484.34
366.341	1866.72
366.554	3216.33
366.767	-844.79
366.98	-9.22
367.193	990.19
367.406	-1330.16
367.619	3640.26
367.832	1879.01
368.045	287.74
368.258	308.22
368.471	1029.1
368.684	-2239.45
368.896	-1768.42
369.109	31.74
369.322	-1104.88
369.535	-226.3
369.748	-1547.24
369.961	-844.79
370.173	-3623.88
370.386	-2673.62
370.599	2468.83
370.812	-543.74
371.025	-791.54
371.237	209.92
371.45	234.49
371.663	639.99
371.876	-726
372.088	4684.73
372.301	-869.36
372.514	-1604.58
372.726	558.07
372.939	-447.48
373.152	-486.39
373.364	961.52
373.577	3453.9
373.79	-633.85
374.002	-1061.87
374.215	-3152.85
374.428	-1995.75
374.64	1448.94
374.853	-943.09
375.065	-623.61
375.278	3378.12
375.491	-105.47
375.703	1340.4
375.916	-2075.62
376.128	-779.25
376.341	-1631.21
376.553	838.64
376.766	-1385.45
376.978	-1836
377.191	873.46
377.403	-1752.04
377.616	3142.61
377.828	3941.32
378.04	-1457.13
378.253	-590.84
378.465	562.17
378.678	1082.35
378.89	-1260.52
379.103	-801.78
379.315	179.2
379.527	-1762.28
379.74	-517.11
379.952	-87.04
380.164	-1491.95
380.377	1846.24
380.589	-66.56
380.801	128
381.014	1442.79
381.226	996.34
381.438	-132.09
381.65	-1422.31
381.863	-39.94
382.075	-1170.41
382.287	-2274.27
382.499	-1018.86
382.712	-58.37
382.924	52.22
383.136	-824.31
383.348	-3935.17
383.56	-179.2
383.772	-875.51
383.985	160.77
384.197	1450.99
384.409	-662.52
384.621	316.41
384.833	-132.09
385.045	-68.61
385.257	-1367.02
385.469	-553.98
385.681	-37.89
385.893	-46.08
386.105	-1184.75
386.318	-2800.6
386.53	-361.47
386.742	-3961.8
386.954	-2300.89
387.166	2780.12
387.378	44.03
387.589	173.05
387.801	-3840.97
388.013	-1403.88
388.225	-1342.44
388.437	-2198.49
388.649	-1954.79
388.861	2558.94
389.073	1020.91
389.285	-635.89
389.497	570.36
389.709	1219.57
389.92	-1240.05
390.132	-898.03
390.344	-844.79
390.556	-744.44
390.768	269.31
390.98	-1018.86
391.191	1768.42
391.403	533.5
391.615	203.77
391.827	-1145.84
392.038	-828.4
392.25	-224.25
392.462	-2192.35
392.674	-1919.97
392.885	-1489.9
393.097	-2720.73
393.309	-777.2
393.52	1020.91
393.732	-1717.22
393.944	539.64
394.155	191.49
394.367	-1504.23
394.579	461.82
394.79	-1131.5
395.002	-164.86
395.213	-2919.38
395.425	-455.67
395.637	-1106.93
395.848	-2268.13
396.06	353.27
396.271	320.51
396.483	-1061.87
396.694	-330.75
396.906	-547.83
397.117	1311.72
397.329	1332.2
397.54	-861.17
397.752	-1881.06
397.963	-1270.76
398.175	89.09
398.386	1078.26
398.598	-830.45
398.809	-2315.23
399.02	701.43
399.232	660.47
399.443	105.47
399.655	-1047.54
399.866	-1151.98
400.077	-672.76
400.289	1321.96
400.5	-33.79
400.711	957.43
400.923	-1594.34
401.134	-971.76
401.345	-1844.2
401.556	3351.5
401.768	-961.52
401.979	-1182.7
402.19	689.14
402.401	-685.05
402.613	62.46
402.824	-846.84
403.035	-2804.69
403.246	-1823.72
403.457	242.68
403.669	220.16
403.88	-1338.35
404.091	-2104.29
404.302	-1326.06
404.513	-703.48
404.724	-881.65
404.935	-871.41
405.146	1053.68
405.358	-1833.96
405.569	-1598.44
405.78	-2026.47
405.991	-945.14
406.202	9.22
406.413	-414.71
406.624	-1563.62
406.835	-422.91
407.046	2708.44
407.257	-175.1
407.468	1063.92
407.679	-437.24
407.89	1823.72
408.101	1833.96
408.312	-494.58
408.522	-1987.55
408.733	230.4
408.944	-33.79
409.155	-783.35
409.366	826.36
409.577	-1958.88
409.788	-443.39
409.999	58.37
410.209	-691.19
410.42	-76.8
410.631	-1903.59
410.842	-234.49
411.053	5008.31
411.264	1119.21
411.474	-1270.76
411.685	-17.41
411.896	-1379.31
412.107	-2081.76
412.317	-1129.45
412.528	1911.78
412.739	-2339.8
412.949	-1305.58
413.16	50.18
413.371	2085.86
413.581	975.86
413.792	-414.71
414.003	3681.22
414.213	1811.43
414.424	-2167.77
414.635	-500.73
414.845	-1194.99
415.056	973.81
415.266	-1686.5
415.477	-2507.74
415.687	799.73
415.898	982
416.109	-1793
416.319	390.14
416.53	-3163.09
416.74	183.29
416.951	-1428.46
417.161	-74.75
417.372	76.8
417.582	578.55
417.792	1547.24
418.003	2096.1
418.213	-836.6
418.424	484.34
418.634	-1555.43
418.844	1006.58
419.055	1973.22
419.265	-1334.25
419.476	498.68
419.686	-1027.06
419.896	-74.75
420.107	-1201.13
420.317	-719.86
420.527	91.13
420.738	-482.3
420.948	1035.25
421.158	1493.99
421.368	-545.78
421.579	-400.38
421.789	-1051.63
421.999	-4197.31
422.209	-488.44
422.419	-594.93
422.63	-160.77
422.84	-592.89
423.05	-1274.86
423.26	-1123.31
423.47	-363.51
423.681	-2010.08
423.891	752.63
424.101	1641.45
424.311	-877.55
424.521	-314.36
424.731	-740.34
424.941	-668.66
425.151	345.08
425.361	-1698.79
425.571	-2677.72
425.781	3933.12
425.991	773.11
426.201	1465.32
426.411	322.56
426.621	-1397.74
426.831	-2065.38
427.041	146.43
427.251	-349.18
427.461	1238
427.671	1219.57
427.881	-801.78
428.091	-93.18
428.301	2282.46
428.511	29.7
428.721	-3904.45
428.93	-543.74
429.14	-1121.26
429.35	179.2
429.56	-1221.61
429.77	-424.95
429.98	-1385.45
430.189	-1078.26
430.399	2612.18
430.609	1418.22
430.819	236.54
431.029	-1469.42
431.238	-893.94
431.448	-936.95
431.658	-3025.87
431.867	-703.48
432.077	250.88
432.287	-1076.21
432.497	-1080.3
432.706	-191.49
432.916	-445.43
433.125	-3351.5
433.335	-1348.59
433.545	1164.27
433.754	3814.34
433.964	-1379.31
434.174	-900.08
434.383	2298.84
434.593	-1270.76
434.802	938.99
435.012	-1291.24
435.221	308.22
435.431	-791.54
435.64	-1031.15
435.85	-1295.34
436.059	168.96
436.269	730.1
436.478	-1119.21
436.688	-2370.52
436.897	-912.37
437.107	-2218.97
437.316	27251.3
437.525	173.05
437.735	11.26
437.944	-80.89
438.154	2296.8
438.363	66.56
438.572	2939.86
438.782	240.64
438.991	-881.65
439.2	-441.34
439.41	-1041.39
439.619	-1084.4
439.828	224.25
440.038	78.85
440.247	2122.72
440.456	-1571.82
440.665	406.52
440.875	756.72
441.084	349.18
441.293	-1844.2
441.502	-1158.13
441.711	-1076.21
441.92	277.5
442.13	-476.15
442.339	-1260.52
442.548	-594.93
442.757	1768.42
442.966	-3126.22
443.175	-1127.41
443.384	1371.12
443.593	1594.34
443.803	-2120.67
444.012	-267.26
444.221	-578.55
444.43	4606.91
444.639	439.29
444.848	1999.84
445.057	-1184.75
445.266	-1479.66
445.475	-2249.69
445.684	-1231.85
445.893	2339.8
446.102	328.7
446.311	-3433.42
446.52	70.65
446.728	2954.19
446.937	-3730.38
447.146	-4357.05
447.355	293.88
447.564	-420.86
447.773	1442.79
447.982	1438.7
448.191	697.33
448.399	-1334.25
448.608	-984.05
448.817	-648.18
449.026	973.81
449.235	-1455.08
449.443	1082.35
449.652	-744.44
449.861	-1027.06
450.07	300.03
450.278	1817.57
450.487	-3306.45
450.696	54.27
450.904	-1297.39
451.113	-906.23
451.322	592.89
451.53	-801.78
451.739	2884.56
451.948	-1092.59
452.156	19.46
452.365	4230.08
452.574	736.24
452.782	244.73
452.991	-588.79
453.199	705.53
453.408	156.67
453.616	-1364.97
453.825	1172.46
454.033	1223.66
454.242	3242.96
454.45	3290.06
454.659	304.12
454.867	15112.99
455.076	-1113.07
455.284	-918.51
455.493	-1747.94
455.701	-1235.95
455.91	3222.48
456.118	-844.79
456.326	-2165.73
456.535	2620.38
456.743	1203.18
456.951	-2640.86
457.16	1135.6
457.368	709.62
457.576	-1528.81
457.785	2755.54
457.993	-142.33
458.201	-1311.72
458.41	504.82
458.618	-982
458.826	-181.25
459.034	-3077.07
459.243	-1547.24
459.451	226.3
459.659	134.14
459.867	-689.14
460.075	-855.03
460.284	-76.8
460.492	-2245.6
460.7	-363.51
460.908	-648.18
461.116	-3611.59
461.324	-1274.86
461.532	-2431.96
461.741	-2081.76
461.949	-904.18
462.157	2120.67
462.365	-84.99
462.573	-287.74
462.781	441.34
462.989	-769.01
463.197	-1559.53
463.405	-2337.76
463.613	-54.27
463.821	-2558.94
464.029	11.26
464.237	-1160.17
464.445	-805.88
464.653	938.99
464.861	-295.93
465.069	1178.61
465.276	4641.72
465.484	-809.97
465.692	-834.55
465.9	-916.47
466.108	-707.57
466.316	838.64
466.524	-816.12
466.731	-539.64
466.939	1737.7
467.147	-146.43
467.355	-113.66
467.563	1485.8
467.77	709.62
467.978	-2565.08
468.186	257.02
468.393	1891.3
468.601	-381.95
468.809	-1864.68
469.017	-801.78
469.224	-1815.52
469.432	1000.43
469.64	-1315.82
469.847	-1883.11
470.055	562.17
470.263	-1217.52
470.47	-1250.28
470.678	1387.5
470.885	-238.59
471.093	2397.15
471.3	875.51
471.508	-1496.04
471.716	-539.64
471.923	238.59
472.131	197.63
472.338	-1532.9
472.546	-844.79
472.753	2749.4
472.961	-1410.03
473.168	-312.32
473.375	-560.12
473.583	1117.17
473.79	-248.83
473.998	205.82
474.205	383.99
474.412	1872.87
474.62	-807.92
474.827	-1555.43
475.035	1303.53
475.242	-861.17
475.449	-1491.95
475.657	3924.93
475.864	3132.37
476.071	-87.04
476.278	-1014.77
476.486	-596.98
476.693	164.86
476.9	293.88
477.107	254.97
477.315	-1045.49
477.522	54.27
477.729	1567.72
477.936	-693.24
478.143	-1493.99
478.351	1283.05
478.558	-1340.4
478.765	-678.9
478.972	-314.36
479.179	568.31
479.386	715.77
479.593	861.17
479.8	1143.79
480.007	-1647.59
480.215	-214.01
480.422	941.04
480.629	-2354.14
480.836	1080.3
481.043	3165.14
481.25	-687.09
481.457	-1422.31
481.664	-578.55
481.871	637.94
482.078	-1418.22
482.284	-1348.59
482.491	1985.51
482.698	1594.34
482.905	-1051.63
483.112	-2235.36
483.319	150.53
483.526	60.42
483.733	2124.77
483.94	-2812.89
484.146	-1686.5
484.353	76.8
484.56	-699.38
484.767	-4207.55
484.974	2092
485.18	1608.68
485.387	-572.41
485.594	-1207.28
485.801	1799.14
486.007	248.83
486.214	-918.51
486.421	-1924.07
486.627	-285.69
486.834	824.31
487.041	580.6
487.247	-1227.76
487.454	-1430.51
487.661	396.28
487.867	482.3
488.074	-1797.09
488.281	1039.34
488.487	-259.07
488.694	-867.31
488.9	-490.49
489.107	-1053.68
489.313	-728.05
489.52	-580.6
489.726	-1774.56
489.933	2816.98
490.139	2708.44
490.346	-355.32
490.552	248.83
490.759	-406.52
490.965	269.31
491.172	16390.92
491.378	-508.92
491.584	41.98
491.791	1764.33
491.997	-240.64
492.204	-480.25
492.41	3130.32
492.616	-1840.1
492.823	-1653.73
493.029	-1145.84
493.235	2163.68
493.442	-287.74
493.648	-777.2
493.854	-672.76
494.06	4707.26
494.267	574.46
494.473	-848.88
494.679	-1348.59
494.885	340.99
495.091	3181.52
495.298	809.97
495.504	-2503.64
495.71	-244.73
495.916	-1917.92
496.122	2481.11
496.328	599.03
496.535	672.76
496.741	-388.09
496.947	713.72
497.153	-285.69
497.359	406.52
497.565	558.07
497.771	1623.02
497.977	-238.59
498.183	-850.93
498.389	746.48
498.595	-1688.55
498.801	439.29
499.007	865.27
499.213	-396.28
499.419	-789.49
499.625	54.27
499.831	3189.71
500.037	-672.76
500.243	-1455.08
500.448	-611.32
500.654	992.24
500.86	1868.77
501.066	-547.83
501.272	2540.51
501.478	-1838.05
501.684	-670.71
501.889	-1811.43
502.095	-1414.12
502.301	-304.12
502.507	617.46
502.712	-537.59
502.918	-1254.38
503.124	-1051.63
503.33	1043.44
503.535	-803.83
503.741	171.01
503.947	-340.99
504.152	-324.6
504.358	-2139.1
504.564	-564.22
504.769	508.92
504.975	4262.85
505.181	-56.32
505.386	-1823.72
505.592	-646.13
505.797	719.86
506.003	-2591.7
506.208	1930.21
506.414	-396.28
506.619	27.65
506.825	508.92
507.03	-2024.42
507.236	-988.14
507.441	74.75
507.647	-871.41
507.852	-48.13
508.058	1268.72
508.263	1295.34
508.469	-580.6
508.674	-2214.88
508.879	-486.39
509.085	-82.94
509.29	-1651.69
509.495	-1381.35
509.701	-1022.96
509.906	916.47
510.111	-543.74
510.317	1004.53
510.522	201.72
510.727	1965.03
510.933	-793.59
511.138	394.23
511.343	-871.41
511.548	564.22
511.754	-1645.54
511.959	2364.38
512.164	-68.61
512.369	3439.56
512.574	3353.55
512.779	-1571.82
512.985	-334.84
513.19	969.71
513.395	62.46
513.6	-1096.69
513.805	-189.44
514.01	1913.83
514.215	-306.17
514.42	2900.95
514.625	-537.59
514.83	2560.98
515.035	-316.41
515.24	-3.07
515.445	3032.02
515.65	1952.74
515.855	62.46
516.06	-560.12
516.265	502.78
516.47	1313.77
516.675	68.61
516.88	-2345.95
517.085	171.01
517.29	-457.72
517.495	431.1
517.7	1610.73
517.904	-277.5
518.109	607.22
518.314	-414.71
518.519	666.61
518.724	603.13
518.928	732.15
519.133	-451.58
519.338	357.37
519.543	541.69
519.747	930.8
519.952	3001.3
520.157	5991.33
520.362	889.84
520.566	2839.51
520.771	-1784.8
520.976	1059.82
521.18	3953.6
521.385	-906.23
521.59	-951.28
521.794	588.79
521.999	2128.86
522.203	-865.27
522.408	-437.24
522.612	-928.75
522.817	703.48
523.022	2206.69
523.226	-248.83
523.431	-1254.38
523.635	187.39
523.84	2010.08
524.044	-740.34
524.249	1715.17
524.453	2927.57
524.657	185.34
524.862	6808.47
525.066	-1004.53
525.271	-54.27
525.475	1127.41
525.679	-84.99
525.884	-1870.82
526.088	1313.77
526.292	2593.75
526.497	275.45
526.701	-746.48
526.905	-302.08
527.11	316.41
527.314	-234.49
527.518	3482.57
527.722	-746.48
527.927	1350.64
528.131	-2122.72
528.335	5467.05
528.539	1860.58
528.744	2845.65
528.948	-1657.83
529.152	-1010.67
529.356	2444.25
529.56	607.22
529.764	136.19
529.968	13.31
530.173	7701.39
530.377	6253.47
530.581	-1565.67
530.785	1854.44
530.989	-470.01
531.193	447.48
531.397	-1178.61
531.601	291.84
531.805	1829.86
532.009	1676.26
532.213	46.08
532.417	707.57
532.621	2089.95
532.825	3245.01
533.029	60.42
533.233	773.11
533.436	695.29
533.64	285.69
533.844	1788.9
534.048	-594.93
534.252	1393.64
534.456	3494.86
534.66	2294.75
534.863	193.53
535.067	312.32
535.271	2487.26
535.475	-439.29
535.679	2167.77
535.882	3154.9
536.086	2040.8
536.29	2425.82
536.493	766.96
536.697	1604.58
536.901	1174.51
537.104	2118.62
537.308	1074.16
537.512	1526.76
537.715	3912.64
537.919	2065.38
538.123	2008.03
538.326	1430.51
538.53	2888.66
538.733	3562.44
538.937	2274.27
539.141	1954.79
539.344	3195.86
539.548	2319.32
539.751	4854.71
539.955	5792.68
540.158	7449.49
540.362	5172.15
540.565	3269.58
540.768	4574.14
540.972	11017.05
541.175	9155.44
541.379	6712.22
541.582	6421.41
541.785	8070.02
541.989	9511.79
542.192	5411.76
542.396	6552.48
542.599	8659.84
542.802	9237.36
543.005	7715.72
543.209	6509.47
543.412	8180.61
543.615	8309.63
543.819	7965.57
544.022	6413.21
544.225	7922.57
544.428	7990.15
544.631	10486.62
544.835	7383.95
545.038	6452.13
545.241	6835.1
545.444	9661.29
545.647	8133.51
545.85	6951.83
546.054	5731.24
546.257	3924.93
546.46	6697.88
546.663	6081.44
546.866	6904.73
547.069	7125.91
547.272	5358.51
547.475	5872.55
547.678	5518.25
547.881	4215.74
548.084	4670.39
548.287	5012.4
548.49	2350.04
548.693	3994.56
548.896	1856.48
549.099	4424.64
549.302	2687.96
549.505	2022.37
549.707	1977.31
549.91	4142.02
550.113	1919.97
550.316	1661.93
550.519	4352.96
550.722	4117.44
550.924	1965.03
551.127	2796.5
551.33	2130.91
551.533	1639.4
551.736	1311.72
551.938	1246.19
552.141	2698.2
552.344	779.25
552.546	2816.98
552.749	1608.68
552.952	1784.8
553.154	1858.53
553.357	1766.37
553.56	1778.66
553.762	7058.32
553.965	5802.92
554.168	1901.54
554.37	3961.8
554.573	2595.8
554.775	4268.99
554.978	3222.48
555.18	427
555.383	1057.78
555.585	5141.43
555.788	2622.42
555.99	1274.86
556.193	1836
556.395	3302.35
556.598	934.9
556.8	1430.51
557.003	2028.51
557.205	5921.7
557.407	1369.07
557.61	1985.51
557.812	2259.93
558.015	4355.01
558.217	1532.9
558.419	2094.05
558.622	3703.75
558.824	2429.91
559.026	975.86
559.228	1743.85
559.431	3480.52
559.633	3435.47
559.835	1725.41
560.037	3318.73
560.24	4885.43
560.442	4017.09
560.644	1340.4
560.846	3369.93
561.048	3453.9
561.25	4486.08
561.453	2927.57
561.655	2010.08
561.857	2501.59
562.059	2206.69
562.261	4586.43
562.463	2890.71
562.665	2585.56
562.867	3879.88
563.069	3566.54
563.271	4764.6
563.473	3412.94
563.675	3208.14
563.877	3154.9
564.079	1926.11
564.281	5372.85
564.483	3668.94
564.685	2956.24
564.887	2499.55
565.089	4375.49
565.291	4467.64
565.493	1797.09
565.694	5319.6
565.896	1752.04
566.098	4092.87
566.3	5213.1
566.502	2634.71
566.704	5540.78
566.905	506.87
567.107	1221.61
567.309	1266.67
567.511	4293.57
567.712	1504.23
567.914	2546.65
568.116	472.06
568.317	4744.12
568.519	3171.28
568.721	345.08
568.922	39.94
569.124	2544.6
569.326	4973.49
569.527	2423.77
569.729	1786.85
569.93	6634.39
570.132	1874.92
570.334	4266.94
570.535	928.75
570.737	1934.31
570.938	6263.71
571.14	2264.03
571.341	3707.85
571.543	6937.49
571.744	2546.65
571.946	4297.66
572.147	1657.83
572.348	5309.36
572.55	4293.57
572.751	4950.96
572.953	1995.75
573.154	4420.54
573.355	6460.32
573.557	9034.61
573.758	3509.19
573.959	3335.12
574.161	4912.05
574.362	5422
574.563	7564.17
574.765	5901.22
574.966	6337.44
575.167	2235.36
575.368	5440.43
575.569	3861.45
575.771	5948.33
575.972	3001.3
576.173	3933.12
576.374	5397.42
576.575	4834.23
576.776	1379.31
576.978	2409.44
577.179	3437.52
577.38	4119.49
577.581	2597.85
577.782	3269.58
577.983	5114.8
578.184	5690.28
578.385	3453.9
578.586	4121.54
578.787	2579.42
578.988	3957.7
579.189	1623.02
579.39	2530.27
579.591	3851.21
579.792	2651.1
579.993	4699.06
580.194	4584.38
580.395	5940.13
580.596	3926.98
580.796	4981.68
580.997	2892.76
581.198	3810.25
581.399	5473.2
581.6	6185.89
581.801	2647
582.001	6744.99
582.202	2483.16
582.403	1383.4
582.604	7586.7
582.804	3638.22
583.005	3922.88
583.206	865.27
583.407	5231.54
583.607	3267.53
583.808	2751.45
584.009	4780.98
584.209	4598.71
584.41	1569.77
584.61	3371.98
584.811	3038.16
585.012	2436.06
585.212	1876.96
585.413	3386.32
585.613	3230.67
585.814	1985.51
586.014	5161.91
586.215	2388.96
586.415	2986.96
586.616	1913.83
586.816	2706.39
587.017	4645.82
587.217	1778.66
587.418	6165.41
587.618	2679.77
587.819	2419.68
588.019	1244.14
588.219	498.68
588.42	2710.49
588.62	920.56
588.82	1164.27
589.021	1299.44
589.221	3247.05
589.421	1616.87
589.622	3699.66
589.822	1168.37
590.022	5264.3
590.222	3621.83
590.423	1670.12
590.623	859.12
590.823	2835.41
591.023	2780.12
591.223	627.7
591.423	5809.06
591.624	2458.59
591.824	2200.54
592.024	1082.35
592.224	2098.14
592.424	5385.13
592.624	2397.15
592.824	2782.17
593.024	1987.55
593.224	4914.1
593.424	4662.2
593.624	2391
593.824	2048.99
594.024	2712.53
594.224	885.75
594.424	2554.84
594.624	508.92
594.824	1756.13
595.024	1229.81
595.224	2380.76
595.424	936.95
595.624	656.37
595.824	1174.51
596.023	3894.21
596.223	3732.42
596.423	1410.03
596.623	2712.53
596.823	-371.71
597.023	-693.24
597.222	6263.71
597.422	787.44
597.622	-232.44
597.822	934.9
598.021	2415.58
598.221	740.34
598.421	-558.07
598.62	1442.79
598.82	603.13
599.02	4627.39
599.219	4352.96
599.419	2370.52
599.618	609.27
599.818	2405.34
600.018	-596.98
600.217	1029.1
600.417	3963.84
600.616	1272.81
600.816	1811.43
601.015	1825.76
601.215	1012.72
601.414	672.76
601.614	615.41
601.813	-521.21
602.013	1985.51
602.212	1547.24
602.412	383.99
602.611	2337.76
602.81	1932.26
603.01	2962.39
603.209	1420.27
603.408	-1117.17
603.608	2577.37
603.807	1072.11
604.006	5827.5
604.206	-3.07
604.405	1328.11
604.604	1700.84
604.803	1623.02
605.003	234.49
605.202	80.89
605.401	793.59
605.6	2333.66
605.8	320.51
605.999	322.56
606.198	1627.11
606.397	1907.68
606.596	730.1
606.795	2587.61
606.994	3472.33
607.193	777.2
607.393	3851.21
607.592	3795.91
607.791	1602.54
607.99	3830.73
608.189	3699.66
608.388	4717.5
608.587	4086.72
608.786	2202.59
608.985	738.29
609.184	1958.88
609.382	3462.09
609.581	2905.04
609.78	4797.37
609.979	4289.47
610.178	2755.54
610.377	2550.75
610.576	553.98
610.775	2997.2
610.973	3075.03
611.172	3920.84
611.371	2735.06
611.57	2141.15
611.769	4762.55
611.967	1547.24
612.166	4645.82
612.365	2663.38
612.564	2911.19
612.762	3132.37
612.961	3142.61
613.16	2171.87
613.358	2974.67
613.557	-62.46
613.756	2882.52
613.954	4260.8
614.153	1201.13
614.351	1309.68
614.55	408.57
614.749	3589.07
614.947	1901.54
615.146	549.88
615.344	2468.83
615.543	-15.36
615.741	2194.4
615.94	2839.51
616.138	805.88
616.337	2941.91
616.535	1092.59
616.733	111.61
616.932	1420.27
617.13	3713.99
617.329	4950.96
617.527	-893.94
617.725	-1481.71
617.924	-961.52
618.122	263.16
618.32	-637.94
618.519	-1448.94
618.717	2431.96
618.915	1985.51
619.114	1053.68
619.312	-33.79
619.51	340.99
619.708	2272.22
619.906	-605.17
620.105	-609.27
620.303	-302.08
620.501	3711.94
620.699	-1606.63
620.897	996.34
621.095	1838.05
621.293	-1082.35
621.492	1893.35
621.69	-95.23
621.888	986.1
622.086	3222.48
622.284	1027.06
622.482	463.86
622.68	609.27
622.878	353.27
623.076	-89.09
623.274	-64.51
623.472	400.38
623.67	1242.09
623.868	-2317.28
624.065	902.13
624.263	414.71
624.461	1025.01
624.659	-758.77
624.857	3146.7
625.055	2411.48
625.253	-433.15
625.45	-261.12
625.648	13.31
625.846	279.55
626.044	82.94
626.242	582.65
626.439	1967.07
626.637	609.27
626.835	-187.39
627.032	1895.4
627.23	-1418.22
627.428	3355.6
627.626	1143.79
627.823	482.3
628.021	2816.98
628.218	1782.76
628.416	1330.16
628.614	-1197.04
628.811	-1600.49
629.009	-629.75
629.206	-330.75
629.404	-1178.61
629.601	54.27
629.799	-1690.6
629.996	3253.2
630.194	1076.21
630.391	750.58
630.589	-592.89
630.786	1903.59
630.984	502.78
631.181	-2048.99
631.378	-691.19
631.576	1860.58
631.773	-2081.76
631.97	-1510.38
632.168	-1561.58
632.365	125.95
632.562	340.99
632.76	-986.1
632.957	302.08
633.154	95.23
633.352	635.89
633.549	-764.92
633.746	2192.35
633.943	869.36
634.14	-683
634.338	2417.63
634.535	-467.96
634.732	-119.81
634.929	2819.03
635.126	713.72
635.323	35.84
635.52	2348
635.717	445.43
635.915	-197.63
636.112	-13.31
636.309	-1838.05
636.506	-547.83
636.703	-2302.94
636.9	-347.13
637.097	5139.38
637.294	115.71
637.491	-1059.82
637.688	2098.14
637.884	-1158.13
638.081	-611.32
638.278	-128
638.475	-351.23
638.672	-488.44
638.869	-885.75
639.066	5802.92
639.263	683
639.459	781.3
639.656	-2274.27
639.853	-1747.94
640.05	4572.09
640.246	2128.86
640.443	-351.23
640.64	-2724.82
640.837	353.27
641.033	-1846.24
641.23	-130.05
641.427	-185.34
641.623	652.28
641.82	-547.83
642.017	-1264.62
642.213	-576.5
642.41	-502.78
642.606	1186.8
642.803	1201.13
643	142.33
643.196	-1309.68
643.393	2139.1
643.589	269.31
643.786	-1123.31
643.982	4219.84
644.179	1432.55
644.375	-965.62
644.571	-531.45
644.768	-1598.44
644.964	-326.65
645.161	-338.94
645.357	2567.13
645.553	349.18
645.75	2204.64
645.946	101.37
646.143	-203.77
646.339	422.91
646.535	297.98
646.731	1274.86
646.928	-87.04
647.124	-1668.07
647.32	2257.89
647.516	1840.1
647.713	-1326.06
647.909	-78.85
648.105	-539.64
648.301	-2694.1
648.497	310.27
648.693	-590.84
648.89	-392.19
649.086	-152.57
649.282	-1063.92
649.478	-617.46
649.674	99.33
649.87	1917.92
650.066	1332.2
650.262	-1154.03
650.458	1645.54
650.654	-1475.56
650.85	226.3
651.046	-496.63
651.242	-197.63
651.438	128
651.634	-1637.35
651.83	-783.35
652.026	398.33
652.222	-388.09
652.417	-297.98
652.613	1203.18
652.809	-1516.52
653.005	-900.08
653.201	2382.81
653.397	-943.09
653.592	-220.16
653.788	-1215.47
653.984	1569.77
654.18	4858.81
654.375	-855.03
654.571	-191.49
654.767	-160.77
654.962	-893.94
655.158	-3134.42
655.354	-693.24
655.549	1086.45
655.745	1610.73
655.941	3396.56
656.136	-973.81
656.332	-1416.17
656.527	-84.99
656.723	1356.78
656.918	-1965.03
657.114	-756.72
657.309	-320.51
657.505	877.55
657.7	1293.29
657.896	-1270.76
658.091	-1192.94
658.287	-842.74
658.482	-2323.42
658.678	-1211.37
658.873	179.2
659.068	3179.47
659.264	-652.28
659.459	36071.9
659.654	662.52
659.85	2135.01
660.045	-1639.4
660.24	1700.84
660.436	5157.81
660.631	-259.07
660.826	1975.27
661.021	152.57
661.217	2405.34
661.412	-859.12
661.607	-2247.65
661.802	-603.13
661.997	-355.32
662.192	482.3
662.388	-2634.71
662.583	-545.78
662.778	406.52
662.973	-1938.4
663.168	-2587.61
663.363	-1100.78
663.558	3869.64
663.753	1289.2
663.948	-2057.18
664.143	-1696.74
664.338	302.08
664.533	930.8
664.728	-519.16
664.923	-1074.16
665.118	181.25
665.313	-947.19
665.508	1278.96
665.703	1100.78
665.897	1096.69
666.092	369.66
666.287	-171.01
666.482	-709.62
666.677	1764.33
666.872	1524.71
667.066	-945.14
667.261	-1074.16
667.456	162.81
667.651	1330.16
667.845	1827.81
668.04	535.54
668.235	-1500.14
668.429	1170.41
668.624	138.24
668.819	-699.38
669.013	-1649.64
669.208	795.64
669.402	-1584.1
669.597	-68.61
669.792	-752.63
669.986	2745.3
670.181	-2104.29
670.375	353.27
670.57	-1805.28
670.764	-1070.06
670.959	-556.02
671.153	21.5
671.348	-332.79
671.542	2542.55
671.737	-2126.82
671.931	-2700.25
672.125	437.24
672.32	1000.43
672.514	1129.45
672.709	-1692.65
672.903	-89.09
673.097	-730.1
673.291	-1463.27
673.486	1377.26
673.68	144.38
673.874	-1012.72
674.069	-1149.93
674.263	789.49
674.457	1315.82
674.651	750.58
674.845	-783.35
675.04	3675.08
675.234	-1127.41
675.428	-363.51
675.622	-1457.13
675.816	-1850.34
676.01	-824.31
676.204	-80.89
676.398	218.11
676.592	-789.49
676.787	-726
676.981	128
677.175	-15.36
677.369	-3943.36
677.563	35.84
677.757	-293.88
677.95	-1260.52
678.144	-2712.53
678.338	-967.67
678.532	687.09
678.726	-2405.34
678.92	3156.94
679.114	27.65
679.308	29.7
679.502	-4660.15
679.695	-2098.14
679.889	-558.07
680.083	-3560.39
680.277	-2411.48
680.471	-492.54
680.664	-1487.85
680.858	422.91
681.052	-130.05
681.245	-1242.09
681.439	562.17
681.633	-1035.25
681.826	-433.15
682.02	-1016.82
682.214	617.46
682.407	-1270.76
682.601	-922.61
682.795	-500.73
682.988	-529.4
683.182	-1186.8
683.375	-549.88
683.569	-781.3
683.762	652.28
683.956	1958.88
684.149	1749.99
684.343	1651.69
684.536	-1223.66
684.73	166.91
684.923	-2436.06
685.116	-1993.7
685.31	2221.02
685.503	775.16
685.696	-259.07
685.89	1135.6
686.083	-1563.62
686.276	-877.55
686.47	123.9
686.663	-642.04
686.856	-246.78
687.05	1352.68
687.243	-586.74
687.436	1254.38
687.629	1836
687.822	541.69
688.016	-932.85
688.209	-994.29
688.402	541.69
688.595	-140.29
688.788	-2266.08
688.981	-1700.84
689.174	2745.3
689.367	101.37
689.561	-859.12
689.754	-2530.27
689.947	-490.49
690.14	-91.13
690.333	-3763.14
690.526	-769.01
690.719	1643.49
690.912	1874.92
691.104	89.09
691.297	-265.21
691.49	136.19
691.683	-869.36
691.876	-3046.35
692.069	2665.43
692.262	-125.95
692.455	375.8
692.647	-386.04
692.84	-1709.03
693.033	375.8
693.226	609.27
693.419	-1362.92
693.611	-742.39
693.804	134.14
693.997	562.17
694.189	-279.55
694.382	-1141.74
694.575	3079.12
694.767	-171.01
694.96	-1477.61
695.153	-406.52
695.345	224.25
695.538	1631.21
695.731	242.68
695.923	-799.73
696.116	72.7
696.308	1514.47
696.501	3.07
696.693	2048.99
696.886	-967.67
697.078	-2368.48
697.271	336.89
697.463	754.68
697.655	-330.75
697.848	193.53
698.04	-996.34
698.233	-2253.79
698.425	-607.22
698.617	1338.35
698.81	-1385.45
699.002	-859.12
699.194	1803.24
699.387	820.21
699.579	-1149.93
699.771	-1868.77
699.963	-3621.83
700.156	-1944.55
700.348	875.51
700.54	-164.86
700.732	-938.99
700.924	-717.81
701.117	-687.09
701.309	-1172.46
701.501	-2524.12
701.693	4125.63
701.885	-973.81
702.077	1063.92
702.269	447.48
702.461	1850.34
702.653	123.9
702.845	-826.36
703.037	355.32
703.229	1938.4
703.421	-1070.06
703.613	-1438.7
703.805	3494.86
703.997	427
704.189	1045.49
704.381	-912.37
704.573	3662.79
704.765	-789.49
704.957	1389.55
705.148	-156.67
705.34	-1018.86
705.532	-39.94
705.724	-1276.91
705.916	-1844.2
706.107	1586.15
706.299	293.88
706.491	1749.99
706.682	1514.47
706.874	-758.77
707.066	-582.65
707.258	-1602.54
707.449	-519.16
707.641	5532.59
707.832	-19.46
708.024	-900.08
708.216	-308.22
708.407	726
708.599	-480.25
708.79	1829.86
708.982	-1641.45
709.173	-449.53
709.365	-1133.55
709.556	-287.74
709.748	-431.1
709.939	273.4
710.131	574.46
710.322	-2239.45
710.514	2427.87
710.705	-760.82
710.896	642.04
711.088	506.87
711.279	621.56
711.47	1868.77
711.662	1020.91
711.853	-1506.28
712.044	-2470.87
712.236	310.27
712.427	-70.65
712.618	-2495.45
712.809	-1264.62
713	-515.06
713.192	1338.35
713.383	-736.24
713.574	271.36
713.765	80.89
713.956	-883.7
714.147	1930.21
714.338	-1729.51
714.53	1514.47
714.721	2444.25
714.912	-1057.78
715.103	-2014.18
715.294	535.54
715.485	1061.87
715.676	-2372.57
715.867	-2888.66
716.058	-785.4
716.249	1377.26
716.44	-496.63
716.63	-1747.94
716.821	-273.4
717.012	1473.51
717.203	-1272.81
717.394	-852.98
717.585	-2636.76
717.776	-656.37
717.966	-1188.85
718.157	-1684.45
718.348	699.38
718.539	-66.56
718.73	1164.27
718.92	2329.56
719.111	-938.99
719.302	316.41
719.492	-1131.5
719.683	658.42
719.874	-1188.85
720.064	4076.48
720.255	-2083.81
720.446	-349.18
720.636	1602.54
720.827	1381.35
721.017	392.19
721.208	-728.05
721.398	-877.55
721.589	842.74
721.779	236.54
721.97	-4076.48
722.16	-1381.35
722.351	-2771.93
722.541	-975.86
722.732	1004.53
722.922	891.89
723.112	1676.26
723.303	-1854.44
723.493	-1293.29
723.683	1092.59
723.874	2153.44
724.064	467.96
724.254	2169.82
724.445	-973.81
724.635	2286.56
724.825	-2939.86
725.015	-1033.2
725.206	-715.77
725.396	1201.13
725.586	-1475.56
725.776	738.29
725.966	3701.7
726.157	1389.55
726.347	2038.75
726.537	-181.25
726.727	1965.03
726.917	-1313.77
727.107	-982
727.297	-2989.01
727.487	1954.79
727.677	-1053.68
727.867	164.86
728.057	-322.56
728.247	291.84
728.437	826.36
728.627	-1043.44
728.817	-758.77
729.007	418.81
729.197	631.8
729.387	-568.31
729.576	-400.38
729.766	1592.3
729.956	-476.15
730.146	-1055.73
730.336	-1909.73
730.525	-420.86
730.715	-1209.33
730.905	-183.29
731.095	-723.96
731.284	662.52
731.474	1446.89
731.664	-828.4
731.853	-2665.43
732.043	-1348.59
732.233	-1739.75
732.422	1135.6
732.612	-1336.3
732.802	373.75
732.991	211.96
733.181	-2997.2
733.37	-1657.83
733.56	-758.77
733.749	680.95
733.939	-2206.69
734.128	881.65
734.318	2538.46
734.507	-687.09
734.697	-2436.06
734.886	1438.7
735.076	-1635.3
735.265	1635.3
735.454	332.79
735.644	-1770.47
735.833	-1381.35
736.022	-115.71
736.212	-1098.74
736.401	-674.81
736.59	998.38
736.779	-670.71
736.969	-2165.73
737.158	177.15
737.347	-1448.94
737.536	-234.49
737.726	-1459.18
737.915	1125.36
738.104	697.33
738.293	-777.2
738.482	1.02
738.671	-1346.54
738.86	-2929.62
739.049	805.88
739.238	-1295.34
739.427	-715.77
739.616	-1899.49
739.806	-1844.2
739.995	-3034.07
740.183	-1956.83
740.372	-211.96
740.561	-580.6
740.75	-4426.68
740.939	123.9
741.128	283.64
741.317	1121.26
741.506	-1014.77
741.695	109.57
741.884	844.79
742.072	1545.19
742.261	-347.13
742.45	-467.96
742.639	400.38
742.828	287.74
743.016	-769.01
743.205	-1700.84
743.394	-1465.32
743.582	1563.62
743.771	13.31
743.96	818.16
744.148	89.09
744.337	-48.13
744.526	398.33
744.714	-922.61
744.903	3949.51
745.091	156.67
745.28	1922.02
745.468	1119.21
745.657	762.87
745.845	521.21
746.034	-529.4
746.222	246.78
746.411	353.27
746.599	1203.18
746.788	697.33
746.976	-642.04
747.165	-11.26
747.353	691.19
747.541	4471.74
747.73	-1569.77
747.918	2040.8
748.106	1479.66
748.295	2210.78
748.483	1403.88
748.671	938.99
748.859	852.98
749.048	2628.57
749.236	596.98
749.424	285.69
749.612	2603.99
749.8	732.15
749.989	799.73
750.177	1653.73
750.365	2329.56
750.553	2028.51
750.741	-652.28
750.929	4981.68
751.117	1020.91
751.305	1788.9
751.493	680.95
751.681	3.07
751.869	1364.97
752.057	2479.07
752.245	943.09
752.433	3077.07
752.621	1709.03
752.809	2995.15
752.997	2874.32
753.185	2491.35
753.373	1606.63
753.56	1219.57
753.748	2573.27
753.936	1819.62
754.124	2339.8
754.312	1244.14
754.499	4174.78
754.687	2835.41
754.875	3107.79
755.063	1285.1
755.25	3441.61
755.438	4178.88
755.626	2966.48
755.813	699.38
756.001	3296.21
756.189	1192.94
756.376	1627.11
756.564	2096.1
756.751	4457.4
756.939	740.34
757.127	4615.1
757.314	2188.25
757.502	717.81
757.689	4228.03
757.877	3335.12
758.064	3716.04
758.251	1524.71
758.439	3648.46
758.626	4764.6
758.814	1614.82
759.001	4303.81
759.188	4383.68
759.376	252.92
759.563	3525.58
759.75	3922.88
759.938	1829.86
760.125	1872.87
760.312	2565.08
760.5	2143.2
760.687	3529.67
760.874	1446.89
761.061	3621.83
761.248	-115.71
761.436	6316.96
761.623	2329.56
761.81	2880.47
761.997	3826.63
762.184	2104.29
762.371	1866.72
762.558	2341.85
762.745	4305.85
762.932	2810.84
763.119	3113.94
763.306	2710.49
763.493	2864.08
763.68	3290.06
763.867	4361.15
764.054	1278.96
764.241	2106.34
764.428	4514.75
764.615	2821.08
764.802	2696.15
764.989	1704.93
765.176	2855.89
765.362	3785.67
765.549	1883.11
765.736	10421.09
765.923	4400.06
766.11	4365.25
766.296	2614.23
766.483	209.92
766.67	3032.02
766.857	4056
767.043	1776.61
767.23	3226.57
767.417	4541.37
767.603	3632.07
767.79	2520.03
767.976	5239.73
768.163	5036.98
768.35	3757
768.536	2513.88
768.723	2577.37
768.909	4715.45
769.096	5325.74
769.282	2802.65
769.469	2145.25
769.655	5622.7
769.842	3652.55
770.028	1582.06
770.214	3171.28
770.401	3341.26
770.587	2370.52
770.774	158.72
770.96	62.46
771.146	3548.11
771.333	3771.33
771.519	2560.98
771.705	3234.77
771.891	2075.62
772.078	7803.78
772.264	4328.38
772.45	2528.22
772.636	3220.43
772.822	2515.93
773.009	6501.28
773.195	3791.81
773.381	4103.11
773.567	4430.78
773.753	2399.2
773.939	1412.07
774.125	1180.65
774.311	3079.12
774.497	1637.35
774.683	2452.44
774.869	4752.31
775.055	6329.25
775.241	2261.98
775.427	3662.79
775.613	2118.62
775.799	5528.49
775.985	2028.51
776.171	3486.67
776.357	3513.29
776.543	3519.43
776.729	2704.34
776.914	3490.76
777.1	4496.32
777.286	7408.53
777.472	3279.82
777.657	3075.03
777.843	6097.83
778.029	6327.2
778.215	3990.47
778.4	3318.73
778.586	6441.89
778.772	5276.59
778.957	4588.47
779.143	2364.38
779.329	3564.49
779.514	2622.42
779.7	3900.36
779.885	1614.82
780.071	4254.66
780.256	4332.48
780.442	3986.37
780.627	2028.51
780.813	5168.05
780.998	5741.48
781.184	5188.53
781.369	2507.74
781.555	5135.28
781.74	3861.45
781.925	6032.29
782.111	3363.79
782.296	3941.32
782.481	4561.85
782.667	4139.97
782.852	5477.29
783.037	3810.25
783.223	3818.44
783.408	4080.58
783.593	5354.41
783.778	3191.76
783.963	4842.42
784.149	5465
784.334	3908.55
784.519	4506.56
784.704	3003.35
784.889	4590.52
785.074	3281.87
785.259	4121.54
785.444	6980.5
785.629	3134.42
785.814	2536.41
785.999	3998.66
786.184	7527.31
786.369	3920.84
786.554	2415.58
786.739	6069.16
786.924	5399.47
787.109	5409.71
787.294	6638.49
787.479	6753.18
787.664	5321.65
787.849	6878.1
788.034	7033.75
788.218	7295.89
788.403	6818.71
788.588	8305.54
788.773	8205.19
788.957	7119.76
789.142	10216.29
789.327	9390.96
789.512	9036.66
789.696	13595.44
789.881	14527.27
790.066	11498.32
790.25	14924.57
790.435	13146.94
790.619	15315.73
790.804	14693.15
790.989	14914.33
791.173	18260.71
791.358	16630.53
791.542	15186.71
791.727	16360.2
791.911	16511.75
792.096	15948.56
792.28	16802.56
792.465	17079.04
792.649	17027.84
792.833	18950.88
793.018	17861.36
793.202	19460.82
793.386	21314.23
793.571	20318.92
793.755	19014.37
793.939	17642.23
794.124	19038.94
794.308	19612.37
794.492	18514.66
794.676	17916.65
794.861	18830.05
795.045	20134.6
795.229	16960.25
795.413	19501.78
795.597	17998.57
795.781	17890.03
795.966	20665.03
796.15	17361.66
796.334	21332.67
796.518	19333.85
796.702	15438.61
796.886	16446.21
797.07	17771.25
797.254	16421.64
797.438	14166.82
797.622	13474.61
797.806	14084.91
797.99	14922.52
798.174	13269.81
798.358	15065.88
798.541	14629.66
798.725	15092.51
798.909	11828.04
799.093	12583.74
799.277	12036.94
799.461	12966.71
799.644	8334.21
799.828	11182.93
800.012	13335.35
800.196	10564.45
800.379	10677.09
800.563	8985.46
800.747	12370.76
800.93	10031.97
801.114	9757.55
801.298	9032.57
801.481	12514.11
801.665	11957.07
801.848	8010.63
802.032	9505.65
802.216	13419.32
802.399	9495.41
802.583	8283.01
802.766	7467.92
802.95	9943.91
803.133	11549.52
803.317	7969.67
803.5	7771.02
803.683	9503.6
803.867	7820.17
804.05	10629.98
804.233	11365.2
804.417	11981.64
804.6	8643.45
804.783	9788.27
804.967	11000.66
805.15	9769.83
805.333	9196.4
805.517	9606
805.7	7482.25
805.883	8467.33
806.066	10027.88
806.249	10623.84
806.432	7011.22
806.616	9075.57
806.799	7095.19
806.982	7762.83
807.165	8754.04
807.348	8645.5
807.531	7228.31
807.714	7873.42
807.897	8735.61
808.08	9304.95
808.263	9966.44
808.446	9696.11
808.629	8557.44
808.812	7543.69
808.995	8242.05
809.178	10314.59
809.361	9581.42
809.544	9519.98
809.726	10779.48
809.909	9933.67
810.092	9145.2
810.275	9649
810.458	11404.11
810.64	9470.83
810.823	9100.15
811.006	8334.21
811.189	10511.2
811.371	7302.03
811.554	7938.95
811.737	9382.77
811.919	9653.1
812.102	7420.81
812.285	6122.4
812.467	8883.06
812.65	7646.09
812.832	6998.93
813.015	9724.78
813.197	9667.44
813.38	9225.08
813.562	10457.95
813.745	6558.62
813.927	6161.31
814.11	9044.85
814.292	7490.45
814.475	6441.89
814.657	7490.45
814.839	8708.99
815.022	6673.31
815.204	10904.41
815.386	10158.95
815.569	9472.88
815.751	5829.54
815.933	9089.91
816.116	9112.44
816.298	9282.42
816.48	7437.2
816.662	6757.27
816.844	8156.04
817.027	7996.29
817.209	6880.15
817.391	6265.76
817.573	7336.85
817.755	7447.44
817.937	8104.84
818.119	6972.31
818.301	7117.72
818.483	7396.24
818.665	6732.7
818.847	8579.97
819.029	7687.05
819.211	5997.48
819.393	7695.24
819.575	10187.62
819.757	9388.91
819.939	7893.9
820.121	7304.08
820.303	7527.31
820.485	10382.18
820.666	9888.62
820.848	9835.37
821.03	7080.85
821.212	8756.09
821.394	5116.85
821.575	7721.87
821.757	9218.93
821.939	7627.66
822.121	7598.99
822.302	9874.28
822.484	8246.15
822.666	4686.78
822.847	6251.42
823.029	4256.7
823.21	7969.67
823.392	4914.1
823.573	6476.7
823.755	5176.24
823.937	5456.81
824.118	5677.99
824.3	11639.63
824.481	5616.55
824.662	5893.03
824.844	6112.16
825.025	7711.63
825.207	4563.9
825.388	6392.73
825.569	5088.18
825.751	5557.16
825.932	9005.94
826.113	4434.88
826.295	7338.9
826.476	6841.24
826.657	6282.14
826.839	5721
827.02	7003.03
827.201	9411.44
827.382	5952.42
827.563	7064.47
827.744	5485.48
827.926	6376.35
828.107	7998.34
828.288	4281.28
828.469	6503.32
828.65	7048.08
828.831	3855.3
829.012	5776.3
829.193	7830.41
829.374	5110.71
829.555	7861.13
829.736	11191.13
829.917	8692.6
830.098	7070.61
830.279	3458
830.46	4916.15
830.641	5686.19
830.822	5698.47
831.002	7263.12
831.183	4664.25
831.364	6867.86
831.545	6675.35
831.726	5477.29
831.906	5209.01
832.087	6591.39
832.268	6390.69
832.449	7195.54
832.629	3337.17
832.81	4901.81
832.991	4271.04
833.171	5837.73
833.352	5821.35
833.532	6923.16
833.713	4649.91
833.894	4963.25
834.074	3009.49
834.255	4080.58
834.435	4152.26
834.616	4078.53
834.796	4625.34
834.977	6024.1
835.157	8309.63
835.338	3863.49
835.518	2884.56
835.698	5061.55
835.879	3572.68
836.059	4930.48
836.239	4811.7
836.42	4850.61
836.6	4996.02
836.78	2505.69
836.961	3826.63
837.141	5907.37
837.321	3044.31
837.501	8170.37
837.682	3945.41
837.862	4363.2
838.042	9800.55
838.222	3605.45
838.402	4125.63
838.582	4289.47
838.763	5213.1
838.943	4066.24
839.123	6386.59
839.303	4764.6
839.483	5825.45
839.663	1911.78
839.843	14938.91
840.023	5948.33
840.203	5790.63
840.383	3879.88
840.563	3687.37
840.742	4527.03
840.922	3275.73
841.102	5241.78
841.282	4133.82
841.462	4223.94
841.642	3818.44
841.822	2798.55
842.001	1645.54
842.181	4801.46
842.361	5133.23
842.541	5768.1
842.72	4680.63
842.9	3873.73
843.08	4217.79
843.259	3724.23
843.439	3769.29
843.619	3218.38
843.798	3873.73
843.978	5131.19
844.157	3115.98
844.337	5098.42
844.517	3326.93
844.696	6292.38
844.876	5370.8
845.055	2816.98
845.235	5090.23
845.414	4187.07
845.593	2436.06
845.773	3269.58
845.952	1389.55
846.132	2063.33
846.311	2405.34
846.49	4746.17
846.67	4703.16
846.849	3107.79
847.028	2438.11
847.208	4963.25
847.387	2716.63
847.566	6527.9
847.745	2593.75
847.924	4733.88
848.104	4600.76
848.283	4522.94
848.462	5522.35
848.641	5733.29
848.82	3691.46
848.999	6036.39
849.178	3310.54
849.358	5292.98
849.537	3984.32
849.716	2933.72
849.895	2216.93
850.074	5622.7
850.253	5903.27
850.432	4139.97
850.61	3789.77
850.789	3138.51
850.968	5944.23
851.147	5749.67
851.326	2812.89
851.505	3656.65
851.684	4277.18
851.863	5571.5
852.041	4174.78
852.22	3589.07
852.399	2819.03
852.578	4633.53
852.756	1778.66
852.935	3314.64
853.114	5237.68
853.293	2388.96
853.471	6884.25
853.65	4432.83
853.828	3316.69
854.007	2597.85
854.186	4256.7
854.364	5534.64
854.543	4260.8
854.721	3167.18
854.9	4707.26
855.078	5977
855.257	3333.07
855.435	877.55
855.614	4006.85
855.792	3384.27
855.971	3226.57
856.149	1727.46
856.327	4557.75
856.506	3926.98
856.684	3025.87
856.862	2675.67
857.041	494.58
857.219	5317.55
857.397	2653.14
857.576	2892.76
857.754	2847.7
857.932	4772.79
858.11	3138.51
858.288	3152.85
858.467	1561.58
858.645	1815.52
858.823	3146.7
859.001	4148.16
859.179	2087.9
859.357	2714.58
859.535	4256.7
859.713	5088.18
859.891	4588.47
860.069	7062.42
860.247	2923.48
860.425	1477.61
860.603	4221.89
860.781	5579.69
860.959	4008.9
861.137	1252.33
861.315	2446.3
861.493	3830.73
861.67	5024.69
861.848	4754.36
862.026	2851.8
862.204	2839.51
862.382	3021.78
862.559	3425.23
862.737	4336.57
862.915	4590.52
863.093	2911.19
863.27	5170.1
863.448	5055.41
863.626	3668.94
863.803	3158.99
863.981	2364.38
864.158	1123.31
864.336	2434.01
864.514	2030.56
864.691	1541.1
864.869	2417.63
865.046	1846.24
865.224	3412.94
865.401	4832.18
865.578	2343.9
865.756	5600.17
865.933	902.13
866.111	4987.83
866.288	1942.5
866.465	2608.09
866.643	1749.99
866.82	2296.8
866.997	2237.41
867.175	2659.29
867.352	2417.63
867.529	381.95
867.706	2016.23
867.884	2989.01
868.061	2741.21
868.238	2468.83
868.415	1702.89
868.592	1983.46
868.77	2104.29
868.947	4316.09
869.124	2288.61
869.301	971.76
869.478	3206.1
869.655	97.28
869.832	3040.21
870.009	5616.55
870.186	5581.74
870.363	2835.41
870.54	2917.33
870.717	2546.65
870.894	2773.97
871.071	3757
871.247	1059.82
871.424	2114.53
871.601	2628.57
871.778	2024.42
871.955	2679.77
872.132	3277.77
872.308	2886.61
872.485	2677.72
872.662	2200.54
872.839	4715.45
873.015	2030.56
873.192	3064.79
873.369	2335.71
873.545	2059.23
873.722	2716.63
873.898	2773.97
874.075	2184.16
874.252	3044.31
874.428	2401.24
874.605	2798.55
874.781	-46.08
874.958	1549.29
875.134	3474.38
875.311	3255.25
875.487	3001.3
875.663	5114.8
875.84	2964.43
876.016	3711.94
876.193	3488.71
876.369	1620.97
876.545	1684.45
876.722	1629.16
876.898	2675.67
877.074	2874.32
877.25	3668.94
877.427	8221.57
877.603	2233.31
877.779	1991.65
877.955	2272.22
878.132	4641.72
878.308	4283.33
878.484	5866.41
878.66	1188.85
878.836	2657.24
879.012	2579.42
879.188	3011.54
879.364	2677.72
879.54	2038.75
879.716	898.03
879.892	2796.5
880.068	4340.67
880.244	5999.52
880.42	1379.31
880.596	1987.55
880.772	1756.13
880.948	1659.88
881.124	3425.23
881.3	7113.62
881.475	2493.4
881.651	2319.32
881.827	2229.21
882.003	2231.26
882.178	369.66
882.354	2106.34
882.53	1428.46
882.706	2309.08
882.881	3048.4
883.057	1051.63
883.233	2485.21
883.408	4195.26
883.584	1674.21
883.759	717.81
883.935	699.38
884.111	422.91
884.286	1874.92
884.462	173.05
884.637	1788.9
884.813	760.82
884.988	2044.9
885.164	5645.23
885.339	1225.71
885.514	3879.88
885.69	1485.8
885.865	543.74
886.04	3011.54
886.216	1678.31
886.391	3371.98
886.566	2427.87
886.742	363.51
886.917	2511.83
887.092	4551.61
887.267	351.23
887.443	-64.51
887.618	1295.34
887.793	1405.93
887.968	2491.35
888.143	619.51
888.318	2255.84
888.494	3230.67
888.669	2186.21
888.844	2089.95
889.019	1983.46
889.194	1704.93
889.369	1260.52
889.544	1580.01
889.719	3527.63
889.894	4592.57
890.069	2806.74
890.243	3382.22
890.418	1866.72
890.593	1125.36
890.768	2290.65
890.943	4117.44
891.118	1782.76
891.293	2421.72
891.467	1115.12
891.642	5227.44
891.817	1573.86
891.992	2663.38
892.166	1371.12
892.341	3603.4
892.516	2360.28
892.69	2583.51
892.865	480.25
893.04	1897.44
893.214	3587.02
893.389	2927.57
893.563	5182.38
893.738	5514.16
893.912	1684.45
894.087	2681.82
894.261	3744.71
894.436	1276.91
894.61	5000.12
894.785	2270.17
894.959	2143.2
895.134	3990.47
895.308	1119.21
895.482	3328.97
895.657	1092.59
895.831	1391.59
896.005	7811.98
896.18	1749.99
896.354	2364.38
896.528	377.85
896.702	2415.58
896.877	4060.1
897.051	431.1
897.225	2515.93
897.399	2583.51
897.573	1407.98
897.747	2477.02
897.922	2198.49
898.096	3886.02
898.27	756.72
898.444	1430.51
898.618	2556.89
898.792	2022.37
898.966	2339.8
899.14	2870.23
899.314	2780.12
899.488	3912.64
899.662	2077.66
899.835	2108.38
900.009	2051.04
900.183	492.54
900.357	5221.3
900.531	859.12
900.705	1104.88
900.878	-44.03
901.052	680.95
901.226	2515.93
901.4	2137.06
901.573	408.57
901.747	-48.13
901.921	1225.71
902.095	1653.73
902.268	2980.82
902.442	-58.37
902.615	-1096.69
902.789	2255.84
902.963	6648.73
903.136	576.5
903.31	3122.13
903.483	-568.31
903.657	2333.66
903.83	826.36
904.004	-1954.79
904.177	570.36
904.35	-84.99
904.524	-1510.38
904.697	369.66
904.871	797.68
905.044	1631.21
905.217	5053.36
905.391	3412.94
905.564	1057.78
905.737	721.91
905.91	19.46
906.084	-2012.13
906.257	693.24
906.43	-2235.36
906.603	209.92
906.776	-3242.96
906.949	-1022.96
907.123	-1121.26
907.296	-379.9
907.469	2087.9
907.642	-617.46
907.815	1571.82
907.988	-87.04
908.161	-949.23
908.334	-1194.99
908.507	728.05
908.68	607.22
908.853	-62.46
909.026	-756.72
909.199	-574.46
909.371	2298.84
909.544	1412.07
909.717	-84.99
909.89	-1090.54
910.063	-1285.1
910.236	-29.7
910.408	289.79
910.581	-2171.87
910.754	-2323.42
910.927	-2755.54
911.099	93.18
911.272	455.67
911.445	130.05
911.617	-629.75
911.79	1795.04
911.962	-441.34
912.135	-912.37
912.308	-115.71
912.48	-1737.7
912.653	-1276.91
912.825	-824.31
912.998	-711.67
913.17	1186.8
913.343	1524.71
913.515	-670.71
913.687	-1768.42
913.86	-37.89
914.032	1606.63
914.205	-566.26
914.377	-269.31
914.549	-3433.42
914.721	594.93
914.894	-1485.8
915.066	-478.2
915.238	-1608.68
915.41	1946.59
915.583	181.25
915.755	-1717.22
915.927	48.13
916.099	971.76
916.271	-748.53
916.443	-1879.01
916.616	-2055.14
916.788	21375.67
916.96	2157.54
917.132	-4527.03
917.304	-302.08
917.476	1551.34
917.648	281.6
917.82	-3013.59
917.992	1610.73
918.164	1029.1
918.335	273.4
918.507	1223.66
918.679	-2356.19
918.851	1547.24
919.023	-416.76
919.195	21.5
919.366	-2218.97
919.538	-3279.82
919.71	-1637.35
919.882	-1399.79
920.053	-1911.78
920.225	-1215.47
920.397	1465.32
920.568	-1846.24
920.74	-1319.92
920.912	-1115.12
921.083	-1567.72
921.255	-2018.27
921.426	-2231.26
921.598	11.26
921.77	-961.52
921.941	-1944.55
922.113	-1913.83
922.284	1348.59
922.455	-1139.69
922.627	-2321.37
922.798	-1993.7
922.97	-1506.28
923.141	-1434.6
923.312	-4293.57
923.484	494.58
923.655	-2343.9
923.826	775.16
923.998	-1029.1
924.169	715.77
924.34	-1704.93
924.511	-25.6
924.683	-406.52
924.854	-1342.44
925.025	-220.16
925.196	769.01
925.367	666.61
925.538	48.13
925.709	-453.63
925.881	418.81
926.052	-1383.4
926.223	-820.21
926.394	783.35
926.565	-994.29
926.736	-4434.88
926.907	-1754.09
927.078	-236.54
927.248	3896.26
927.419	705.53
927.59	-2894.8
927.761	769.01
927.932	635.89
928.103	-580.6
928.274	-1369.07
928.444	-560.12
928.615	-1076.21
928.786	-1401.83
928.957	-2120.67
929.127	-1221.61
929.298	-66.56
929.469	-1430.51
929.639	-691.19
929.81	-386.04
929.981	-222.2
930.151	74.75
930.322	3458
930.492	480.25
930.663	3204.05
930.833	-1809.38
931.004	-449.53
931.174	267.26
931.345	-84.99
931.515	-1721.32
931.686	-447.48
931.856	1846.24
932.027	-2008.03
932.197	867.31
932.367	-1661.93
932.538	1270.76
932.708	-1106.93
932.878	-158.72
933.048	-678.9
933.219	-1137.65
933.389	1651.69
933.559	-1674.21
933.729	-1754.09
933.9	463.86
934.07	-1842.15
934.24	-2315.23
934.41	-15.36
934.58	-82.94
934.75	672.76
934.92	-3021.78
935.09	181.25
935.26	-1115.12
935.43	2157.54
935.6	-828.4
935.77	209.92
935.94	377.85
936.11	-1231.85
936.28	-1512.42
936.45	893.94
936.62	-72.7
936.79	412.67
936.96	-785.4
937.129	-895.99
937.299	-39.94
937.469	89.09
937.639	-70.65
937.808	-807.92
937.978	-2470.87
938.148	1242.09
938.317	-146.43
938.487	351.23
938.657	-1338.35
938.826	-1489.9
938.996	-654.33
939.166	-4629.43
939.335	-2173.92
939.505	-78.85
939.674	-1268.72
939.844	-1969.12
940.013	70.65
940.183	-1999.84
940.352	-2005.99
940.522	-582.65
940.691	-1045.49
940.86	582.65
941.03	-875.51
941.199	-58.37
941.368	418.81
941.538	1244.14
941.707	-1905.63
941.876	-746.48
942.046	949.23
942.215	-87.04
942.384	-2038.75
942.553	-537.59
942.722	-775.16
942.892	1539.05
943.061	-2837.46
943.23	324.6
943.399	3441.61
943.568	-736.24
943.737	1788.9
943.906	-254.97
944.075	-1420.27
944.244	1324.01
944.413	-975.86
944.582	-2597.85
944.751	-162.81
944.92	-443.39
945.089	414.71
945.258	-766.96
945.427	-560.12
945.596	-863.22
945.764	-633.85
945.933	-1238
946.102	982
946.271	-775.16
946.44	-738.29
946.608	-1428.46
946.777	-977.91
946.946	-326.65
947.114	1901.54
947.283	-889.84
947.452	-1696.74
947.62	-1176.56
947.789	785.4
947.958	-1321.96
948.126	211.96
948.295	150.53
948.463	-1041.39
948.632	-1100.78
948.8	-773.11
948.969	-1756.13
949.137	-871.41
949.305	-1672.17
949.474	728.05
949.642	713.72
949.811	527.35
949.979	-478.2
950.147	-1969.12
950.316	-2003.94
950.484	-2141.15
950.652	-1407.98
950.82	1297.39
950.989	-3806.15
951.157	-1623.02
951.325	-2061.28
951.493	969.71
951.661	723.96
951.83	711.67
951.998	-2558.94
952.166	-652.28
952.334	-1645.54
952.502	2743.25
952.67	926.71
952.838	564.22
953.006	2247.65
953.174	78.85
953.342	82.94
953.51	-502.78
953.678	-685.05
953.846	-2714.58
954.014	-304.12
954.181	2243.55
954.349	-1440.75
954.517	-1889.25
954.685	-1840.1
954.853	-1248.24
955.02	-1706.98
955.188	-2290.65
955.356	-1383.4
955.524	1006.58
955.691	-490.49
955.859	-1663.97
956.027	-613.37
956.194	2618.33
956.362	-1008.62
956.529	656.37
956.697	-1250.28
956.865	328.7
957.032	1375.21
957.2	-2317.28
957.367	-2194.4
957.535	410.62
957.702	832.5
957.87	-2149.34
958.037	173.05
958.204	-1221.61
958.372	834.55
958.539	140.29
958.706	-467.96
958.874	2984.91
959.041	365.56
959.208	-1956.83
959.376	-1344.49
959.543	945.14
959.71	-58.37
959.877	1084.4
960.044	-334.84
960.212	2499.55
960.379	2845.65
960.546	162.81
960.713	-2653.14
960.88	-465.91
961.047	-117.76
961.214	24535.69
961.381	2282.46
961.548	-957.43
961.715	-291.84
961.882	-2192.35
962.049	-863.22
962.216	-893.94
962.383	-1381.35
962.55	-945.14
962.717	1506.28
962.883	764.92
963.05	2388.96
963.217	531.45
963.384	-1356.78
963.551	-406.52
963.717	-1379.31
963.884	-76.8
964.051	398.33
964.218	1238
964.384	5641.13
964.551	-1956.83
964.717	-2640.86
964.884	-721.91
965.051	-1461.23
965.217	-2214.88
965.384	-2722.77
965.55	1020.91
965.717	922.61
965.883	23.55
966.05	-1477.61
966.216	1999.84
966.383	953.33
966.549	-222.2
966.716	-822.26
966.882	-1762.28
967.048	-1430.51
967.215	-2196.45
967.381	-1383.4
967.547	1709.03
967.713	1999.84
967.88	644.09
968.046	-2319.32
968.212	-797.68
968.378	1043.44
968.545	-2364.38
968.711	1063.92
968.877	-629.75
969.043	-35.84
969.209	-2010.08
969.375	1137.65
969.541	1932.26
969.707	2671.58
969.873	1004.53
970.039	-596.98
970.205	1723.37
970.371	4574.14
970.537	1483.75
970.703	316.41
970.869	-799.73
971.035	1889.25
971.201	37.89
971.367	-1694.69
971.532	-408.57
971.698	-484.34
971.864	1215.47
972.03	-1899.49
972.195	-1223.66
972.361	1909.73
972.527	-1362.92
972.693	3005.39
972.858	1461.23
973.024	-1881.06
973.19	-613.37
973.355	334.84
973.521	648.18
973.686	1436.65
973.852	-2610.14
974.017	4320.19
974.183	-2276.32
974.348	488.44
974.514	-2415.58
974.679	-238.59
974.845	-1395.69
975.01	-443.39
975.175	-3005.39
975.341	17978.09
975.506	-222.2
975.672	459.77
975.837	3783.62
976.002	-168.96
976.167	-883.7
976.333	4672.44
976.498	-1014.77
976.663	-1764.33
976.828	902.13
976.993	-1129.45
977.159	207.87
977.324	478.2
977.489	3089.36
977.654	-68.61
977.819	-1174.51
977.984	-345.08
978.149	2501.59
978.314	1338.35
978.479	-1215.47
978.644	-1924.07
978.809	-760.82
978.974	-1620.97
979.139	2040.8
979.304	111.61
979.469	-867.31
979.633	-633.85
979.798	-543.74
979.963	-1637.35
980.128	2829.27
980.293	-1854.44
980.457	-1553.38
980.622	-2374.62
980.787	-1760.23
980.951	-109.57
981.116	-445.43
981.281	-1829.86
981.445	-312.32
981.61	834.55
981.775	-1926.11
981.939	-2593.75
982.104	1842.15
982.268	1250.28
982.433	1211.37
982.597	-1827.81
982.762	2569.18
982.926	723.96
983.091	-793.59
983.255	-2595.8
983.419	-1758.18
983.584	1577.96
983.748	-117.76
983.912	-162.81
984.077	1948.64
984.241	1975.27
984.405	-1872.87
984.57	1977.31
984.734	-412.67
984.898	-306.17
985.062	-1172.46
985.226	-1231.85
985.39	2528.22
985.555	25.6
985.719	2057.18
985.883	234.49
986.047	-1358.83
986.211	611.32
986.375	54.27
986.539	-1281
986.703	-1336.3
986.867	-111.61
987.031	527.35
987.195	-1065.97
987.359	-1682.41
987.523	240.64
987.686	-2192.35
987.85	-1563.62
988.014	433.15
988.178	-1065.97
988.342	625.65
988.506	513.02
988.669	-433.15
988.833	191.49
988.997	756.72
989.16	-422.91
989.324	-160.77
989.488	2765.78
989.651	52.22
989.815	3134.42
989.979	-1059.82
990.142	177.15
990.306	-635.89
990.469	-1772.52
990.633	971.76
990.796	2182.11
990.96	-703.48
991.123	285.69
991.286	1649.64
991.45	1012.72
991.613	-1592.3
991.777	-2110.43
991.94	-2092
992.103	437.24
992.267	2720.73
992.43	-879.6
992.593	408.57
992.756	746.48
992.92	678.9
993.083	660.47
993.246	-277.5
993.409	-3177.42
993.572	-2145.25
993.735	-502.78
993.899	113.66
994.062	-492.54
994.225	-1000.43
994.388	123.9
994.551	2337.76
994.714	-392.19
994.877	-443.39
995.04	-1743.85
995.203	-1264.62
995.366	1137.65
995.528	-1307.63
995.691	926.71
995.854	-1440.75
996.017	-742.39
996.18	-2655.19
996.343	-476.15
996.505	1674.21
996.668	709.62
996.831	-574.46
996.994	-513.02
997.156	-400.38
997.319	-1174.51
997.482	1537
997.644	-1647.59
997.807	1119.21
997.97	-1893.35
998.132	-1180.65
998.295	1182.7
998.457	527.35
998.62	-1002.48
998.782	-1493.99
998.945	164.86
999.107	-5.12
999.27	-58.37
999.432	-855.03
999.594	433.15
999.757	1991.65
999.919	257.02
1000.081	-2274.27
1000.244	-328.7
1000.406	-228.35
1000.568	-269.31
1000.731	1768.42
1000.893	1551.34
1001.055	1461.23
1001.217	-687.09
1001.379	-2323.42
1001.542	-1555.43
1001.704	3097.55
1001.866	-812.02
1002.028	922.61
1002.19	470.01
1002.352	-1141.74
1002.514	-1410.03
1002.676	5262.26
1002.838	1580.01
1003	-721.91
1003.162	-1358.83
1003.324	2065.38
1003.486	1190.89
1003.648	-1266.67
1003.809	-523.26
1003.971	1100.78
1004.133	-101.37
1004.295	-191.49
1004.457	-453.63
1004.618	601.08
1004.78	150.53
1004.942	3670.98
1005.104	78.85
1005.265	-1350.64
1005.427	906.23
1005.589	-637.94
1005.75	287.74
1005.912	1690.6
1006.073	1944.55
1006.235	136.19
1006.396	-214.01
1006.558	-187.39
1006.72	-205.82
1006.881	359.42
1007.042	-1162.22
1007.204	-1889.25
1007.365	-1303.53
1007.527	1012.72
1007.688	3087.31
1007.849	-15.36
1008.011	-91.13
1008.172	171.01
1008.333	830.45
1008.495	-318.46
1008.656	-1995.75
1008.817	1094.64
1008.978	2333.66
1009.139	-660.47
1009.301	537.59
1009.462	-2696.15
1009.623	848.88
1009.784	-1352.68
1009.945	216.06
1010.106	973.81
1010.267	273.4
1010.428	-1383.4
1010.589	-2124.77
1010.75	11.26
1010.911	-1225.71
1011.072	-2167.77
1011.233	930.8
1011.394	-467.96
1011.555	66.56
1011.716	672.76
1011.877	-1242.09
1012.037	197.63
1012.198	-1264.62
1012.359	332.79
1012.52	-1510.38
1012.68	-418.81
1012.841	-5.12
1013.002	277.5
1013.163	-838.64
1013.323	214.01
1013.484	-1938.4
1013.644	-1387.5
1013.805	625.65
1013.966	-515.06
1014.126	2634.71
1014.287	-764.92
1014.447	-431.1
1014.608	1317.87
1014.768	-1278.96
1014.929	1057.78
1015.089	-1338.35
1015.249	132.09
1015.41	-113.66
1015.57	1043.44
1015.731	-2128.86
1015.891	-748.53
1016.051	629.75
1016.211	-461.82
1016.372	1373.16
1016.532	-799.73
1016.692	-252.92
1016.852	556.02
1017.013	-553.98
1017.173	-162.81
1017.333	-1000.43
1017.493	-666.61
1017.653	-1434.6
1017.813	-2063.33
1017.973	-99.33
1018.133	-1440.75
1018.293	-1811.43
1018.453	-470.01
1018.613	-2028.51
1018.773	2063.33
1018.933	-232.44
1019.093	785.4
1019.253	-117.76
1019.413	1065.97
1019.573	-2028.51
1019.733	-453.63
1019.892	1975.27
1020.052	-642.04
1020.212	472.06
1020.372	46.08
1020.531	1520.62
1020.691	-195.58
1020.851	275.45
1021.01	351.23
1021.17	166.91
1021.33	-506.87
1021.489	-1584.1
1021.649	-91.13
1021.808	-103.42
1021.968	379.9
1022.127	-2931.67
1022.287	1967.07
1022.446	-609.27
1022.606	670.71
1022.765	-1362.92
1022.925	2573.27
1023.084	787.44
1023.244	1790.95
1023.403	-664.57
1023.562	-1055.73
1023.722	-463.86
1023.881	-732.15
1024.04	-300.03
1024.199	623.61
1024.359	-52.22
1024.518	-2153.44
1024.677	-750.58
1024.836	-1117.17
1024.995	828.4
1025.154	-1100.78
1025.313	-134.14
1025.473	-1299.44
1025.632	-1227.76
1025.791	744.44
1025.95	-1371.12
1026.109	-900.08
1026.268	164.86
1026.427	1332.2
1026.586	1672.17
1026.744	-84.99
1026.903	6280.1
1027.062	-365.56
1027.221	1029.1
1027.38	162.81
1027.539	1111.02
1027.698	4703.16
1027.856	-1283.05
1028.015	621.56
1028.174	429.05
1028.333	273.4
1028.491	4170.69
1028.65	1584.1
1028.808	3869.64
1028.967	685.05
1029.126	541.69
1029.284	-1919.97
1029.443	381.95
1029.601	-736.24
1029.76	-1633.26
1029.918	-1360.88
1030.077	664.57
1030.235	2128.86
1030.394	-789.49
1030.552	1098.74
1030.711	2501.59
1030.869	-617.46
1031.027	-824.31
1031.186	-2522.07
1031.344	-1188.85
1031.502	-353.27
1031.661	1135.6
1031.819	1983.46
1031.977	1207.28
1032.135	-1739.75
1032.293	-877.55
1032.452	-1512.42
1032.61	3703.75
1032.768	-1584.1
1032.926	189.44
1033.084	3224.53
1033.242	-586.74
1033.4	-1504.23
1033.558	672.76
1033.716	-455.67
1033.874	-938.99
1034.032	-263.16
1034.19	-404.47
1034.348	2247.65
1034.506	-1780.71
1034.664	455.67
1034.822	-1633.26
1034.979	2477.02
1035.137	895.99
1035.295	-187.39
