Data from TmLN Sample 2_USBC44471_15-07-31-109.txt Node
Date: Wed Jul 29 15:07:31 MDT 2020
User: Montana Instruments
Spectrometer: USBC4447
Scans to average: 1
Trigger mode: 4
Integration Time (sec): 1.000000E1
Electric dark correction enabled: true
Boxcar width: 0
XAxis mode: Wavelengths
Number of Pixels in Spectrum: 3648
>>>>>Begin Spectral Data<<<<<
344.991	-5012.57
345.205	-5012.57
345.419	-5012.57
345.633	-5039.2
345.847	-4963.42
346.061	-171.18
346.275	893.77
346.489	-1457.3
346.703	152.4
346.917	-2428.04
347.131	1370.94
347.345	-783.52
347.559	-822.43
347.773	1649.47
347.986	-11.43
348.2	3017.51
348.414	-1410.2
348.628	-875.68
348.842	-1346.71
349.056	-1213.59
349.269	443.21
349.483	1391.42
349.697	1657.66
349.911	1489.73
350.125	-1313.94
350.338	635.72
350.552	1063.75
350.766	-464.04
350.979	-2108.55
351.193	-529.57
351.407	5454.59
351.621	-60.59
351.834	-2038.92
352.048	2489.14
352.262	-464.04
352.475	3423.01
352.689	1381.18
352.902	1702.72
353.116	252.75
353.33	-1504.4
353.543	-1463.44
353.757	306
353.971	404.3
354.184	303.95
354.398	-298.15
354.611	914.25
354.825	2962.22
355.038	1293.12
355.252	52.05
355.465	-355.49
355.679	-3124.35
355.892	938.82
356.106	1362.75
356.319	7564
356.533	-580.77
356.746	-191.66
356.96	-695.46
357.173	-1977.48
357.386	1528.64
357.6	-617.63
357.813	-1160.34
358.027	-3064.96
358.24	-1027.23
358.453	2751.28
358.667	-1741.97
358.88	1157.96
359.094	-1408.15
359.307	688.97
359.52	-457.89
359.733	2292.53
359.947	-3662.96
360.16	1358.66
360.373	1676.09
360.587	-1334.42
360.8	-683.17
361.013	-203.94
361.226	-1084.57
361.44	2698.03
361.653	1651.52
361.866	-914.59
362.079	-3357.82
362.292	430.93
362.506	3400.48
362.719	750.41
362.932	2978.6
363.145	271.19
363.358	-1123.48
363.571	-1412.25
363.785	-210.09
363.998	1354.56
364.211	1989.43
364.424	-1375.38
364.637	1270.59
364.85	-498.85
365.063	1821.5
365.276	275.28
365.489	-1715.34
365.702	-277.67
365.915	482.13
366.128	-162.98
366.341	2274.1
366.554	3423.01
366.767	-1012.89
366.98	174.93
367.193	1084.23
367.406	-1825.93
367.619	3775.26
367.832	1927.99
368.045	252.75
368.258	578.38
368.471	1096.52
368.684	-3179.64
368.896	-2710.66
369.109	242.51
369.322	-1537.17
369.535	-25.77
369.748	-1922.19
369.961	-740.51
370.173	-3712.11
370.386	-3796.08
370.599	2644.78
370.812	-476.32
371.025	-1129.63
371.237	330.58
371.45	420.69
371.663	930.63
371.876	-859.29
372.088	4739.85
372.301	-920.73
372.514	-2014.35
372.726	641.87
372.939	-197.8
373.152	-416.93
373.364	998.21
373.577	3541.79
373.79	-539.81
374.002	-1293.46
374.215	-3955.82
374.428	-3277.94
374.64	1723.2
374.853	-967.84
375.065	-519.33
375.278	3629.85
375.491	127.83
375.703	1495.87
375.916	-3275.9
376.128	-992.41
376.341	-2024.59
376.553	1092.42
376.766	-2147.47
376.978	-3064.96
377.191	942.92
377.403	-2479.24
377.616	3185.44
377.828	4088.6
378.04	-1580.18
378.253	-623.78
378.465	580.43
378.678	1205.06
378.89	-1223.83
379.103	-885.92
379.315	422.73
379.527	-2937.98
379.74	-459.94
379.952	-140.46
380.164	-1944.72
380.377	2204.47
380.589	170.83
380.801	174.93
381.014	1758.01
381.226	1252.16
381.438	226.13
381.65	-1811.6
381.863	179.03
382.075	-1432.72
382.287	-3292.28
382.499	-1041.56
382.712	-7.34
382.924	205.65
383.136	-871.58
383.348	-4023.41
383.56	29.52
383.772	-1404.05
383.985	267.09
384.197	1469.25
384.409	-451.75
384.621	586.57
384.833	168.79
385.045	158.55
385.257	-1744.02
385.469	-603.3
385.681	193.36
385.893	125.78
386.105	-1322.13
386.318	-3888.24
386.53	-302.25
386.742	-4037.74
386.954	-3443.83
387.166	2913.06
387.378	162.64
387.589	281.43
387.801	-3974.25
388.013	-2208.9
388.225	-1326.23
388.437	-3329.14
388.649	-2856.06
388.861	2638.64
389.073	1211.2
389.285	-578.72
389.497	938.82
389.709	1542.97
389.92	-1422.48
390.132	-1158.3
390.344	-853.15
390.556	-814.24
390.768	471.89
390.98	-1246.36
391.191	1891.13
391.403	813.9
391.615	441.17
391.827	-1438.87
392.038	-922.78
392.25	-230.57
392.462	-3085.44
392.674	-3220.6
392.885	-2063.5
393.097	-3708.02
393.309	-736.42
393.52	1104.71
393.732	-2251.91
393.944	764.75
394.155	562
394.367	-1907.85
394.579	645.96
394.79	-1469.59
395.002	-76.97
395.213	-3986.54
395.425	-298.15
395.637	-1580.18
395.848	-3269.75
396.06	645.96
396.271	324.43
396.483	-1963.15
396.694	-242.85
396.906	-445.6
397.117	1426.24
397.329	1481.53
397.54	-799.9
397.752	-2589.83
397.963	-1465.49
398.175	322.38
398.386	1190.72
398.598	-933.02
398.809	-3466.36
399.02	987.97
399.232	863.05
399.443	207.7
399.655	-1039.51
399.866	-1746.06
400.077	-453.8
400.289	1477.44
400.5	138.07
400.711	1028.93
400.923	-1641.62
401.134	-1541.27
401.345	-2866.3
401.556	3486.5
401.768	-1070.23
401.979	-818.33
402.19	979.78
402.401	-699.55
402.613	301.9
402.824	-863.39
403.035	-3753.07
403.246	-3042.43
403.457	588.62
403.669	461.65
403.88	-1633.43
404.091	-3460.21
404.302	-1651.86
404.513	-777.37
404.724	-1045.66
404.935	-806.05
405.146	1262.4
405.358	-2714.75
405.569	-2071.69
405.78	-3466.36
405.991	-976.03
406.202	154.45
406.413	-271.53
406.624	-2460.81
406.835	-246.95
407.046	2951.98
407.257	-130.22
407.468	1422.14
407.679	-265.38
407.89	1889.08
408.101	2175.8
408.312	-525.47
408.522	-2743.42
408.733	447.31
408.944	187.22
409.155	-677.02
409.366	1000.26
409.577	-2944.13
409.788	-322.73
409.999	246.61
410.209	-730.27
410.42	86.87
410.631	-2739.33
410.842	-9.39
411.053	4932.36
411.264	1168.2
411.474	-1240.22
411.685	-52.39
411.896	-1694.86
412.107	-3546.23
412.317	-1191.06
412.528	2095.93
412.739	-3275.9
412.949	-1870.99
413.16	283.47
413.371	2214.71
413.581	1241.92
413.792	-572.58
414.003	3615.52
414.213	1700.67
414.424	-3040.38
414.635	-535.71
414.845	-1539.22
415.056	342.86
415.266	-2194.57
415.477	-3820.66
415.687	854.86
415.898	1139.52
416.109	-2395.27
416.319	457.55
416.53	-4007.02
416.74	146.26
416.951	-1631.38
417.161	172.88
417.372	160.59
417.582	680.78
417.792	1850.17
418.003	2288.43
418.213	-717.98
418.424	521.04
418.634	-1850.51
418.844	1321.79
419.055	1995.57
419.265	-1715.34
419.476	740.17
419.686	-1035.42
419.896	66.39
420.107	-1766.54
420.317	-650.4
420.527	209.75
420.738	-388.26
420.948	1090.37
421.158	1456.96
421.368	-580.77
421.579	-220.33
421.789	-1479.83
421.999	-4213.87
422.209	-373.92
422.419	-570.53
422.63	-13.48
422.84	-324.77
423.05	-1531.03
423.26	-1346.71
423.47	-97.45
423.681	-2917.5
423.891	1008.45
424.101	1897.27
424.311	-1141.91
424.521	-146.6
424.731	-644.26
424.941	-490.66
425.151	488.27
425.361	-2118.79
425.571	-3980.4
425.781	3955.48
425.991	987.97
426.201	1739.58
426.411	504.65
426.621	-1698.96
426.831	-3071.1
427.041	389.97
427.251	-318.63
427.461	1502.01
427.671	1125.19
427.881	-728.22
428.091	-199.85
428.301	2499.38
428.511	82.77
428.721	-4131.95
428.93	-367.78
429.14	-1369.24
429.35	564.04
429.56	-1176.73
429.77	-363.69
429.98	-1436.82
430.189	-1504.4
430.399	2812.71
430.609	1489.73
430.819	457.55
431.029	-1948.81
431.238	-894.11
431.448	-822.43
431.658	-3783.79
431.867	-887.97
432.077	467.79
432.287	-1279.13
432.497	-1215.64
432.706	62.29
432.916	-312.49
433.125	-4215.91
433.335	-1426.58
433.545	1364.8
433.754	3844.89
433.964	-1426.58
434.174	-1031.32
434.383	2198.32
434.593	-1320.09
434.802	936.78
435.012	-1633.43
435.221	414.54
435.431	-425.12
435.64	-1402.01
435.85	-1318.04
436.059	443.21
436.269	1067.85
436.478	-1148.06
436.688	-3652.72
436.897	-1184.92
437.107	-3347.58
437.316	26931.64
437.525	441.17
437.735	164.69
437.944	90.96
438.154	2466.61
438.363	369.49
438.572	2929.45
438.782	461.65
438.991	-910.49
439.2	-246.95
439.41	-1911.95
439.619	-1100.95
439.828	336.72
440.038	187.22
440.247	2210.61
440.456	-1653.91
440.665	727.88
440.875	1033.03
441.084	461.65
441.293	-2049.16
441.502	-1578.13
441.711	-1596.56
441.92	496.46
442.13	-373.92
442.339	-1506.45
442.548	-576.67
442.757	2052.92
442.966	-4246.63
443.175	-1223.83
443.384	1432.38
443.593	1682.24
443.803	-2428.04
444.012	-52.39
444.221	-486.56
444.43	4543.25
444.639	496.46
444.848	2038.58
445.057	-1735.82
445.266	-2380.93
445.475	-3167.35
445.684	-1598.61
445.893	2448.18
446.102	344.91
446.311	-4263.02
446.52	150.36
446.728	2986.79
446.937	-3609.72
447.146	-4443.24
447.355	475.98
447.564	-267.43
447.773	1514.3
447.982	1342.27
448.191	797.51
448.399	-1744.02
448.608	-1369.24
448.817	-498.85
449.026	1254.21
449.235	-2628.74
449.443	1258.31
449.652	-541.86
449.861	-1074.33
450.07	238.42
450.278	1962.81
450.487	-4351.08
450.696	142.16
450.904	-1756.3
451.113	-1522.84
451.322	938.82
451.53	-687.26
451.739	2974.5
451.948	-1776.78
452.156	291.66
452.365	4289.3
452.574	987.97
452.782	140.12
452.991	-314.53
453.199	828.23
453.408	422.73
453.616	-2462.85
453.825	1381.18
454.033	1413.95
454.242	3416.87
454.45	3605.28
454.659	635.72
454.867	12173.98
455.076	-1391.77
455.284	-1485.97
455.493	-1889.42
455.701	-1322.13
455.91	3218.21
456.118	-1440.92
456.326	-2681.99
456.535	2581.29
456.743	1325.89
456.951	-3509.37
457.16	1268.55
457.368	826.18
457.576	-2473.09
457.785	2657.07
457.993	70.48
458.201	-1516.69
458.41	918.34
458.618	-1547.41
458.826	56.15
459.034	-4291.69
459.243	-2489.48
459.451	-44.2
459.659	82.77
459.867	-443.56
460.075	-1004.7
460.284	-212.14
460.492	-2991.23
460.7	-122.02
460.908	-853.15
461.116	-3742.83
461.324	-1397.91
461.532	-3794.03
461.741	-3249.27
461.949	-1440.92
462.157	2116.41
462.365	115.54
462.573	-21.67
462.781	496.46
462.989	-736.42
463.197	-2036.88
463.405	-3406.97
463.613	-48.3
463.821	-3409.01
464.029	76.63
464.237	-1504.4
464.445	-1279.13
464.653	949.06
464.861	-400.55
465.069	1385.28
465.276	4911.88
465.484	-634.02
465.692	-670.88
465.9	-1244.31
466.108	-1070.23
466.316	983.88
466.524	-672.93
466.731	-556.19
466.939	2003.77
467.147	150.36
467.355	23.38
467.563	1661.76
467.77	996.17
467.978	-3400.82
468.186	480.08
468.393	2183.99
468.601	-509.09
468.809	-2462.85
469.017	-840.86
469.224	-2763.9
469.432	1123.14
469.64	-1408.15
469.847	-2929.79
470.055	650.06
470.263	-1825.93
470.47	-990.36
470.678	1368.9
470.885	-249
471.093	2616.11
471.3	752.46
471.508	-2059.4
471.716	-597.15
471.923	176.98
472.131	572.24
472.338	-1574.03
472.546	-1000.6
472.753	2890.54
472.961	-1541.27
473.168	-87.21
473.375	-468.13
473.583	1323.84
473.79	-261.29
473.998	482.13
474.205	521.04
474.412	2065.21
474.62	-771.23
474.827	-1635.47
475.035	1643.32
475.242	-1440.92
475.449	-1658
475.657	4045.59
475.864	3056.42
476.071	47.96
476.278	-982.17
476.486	-681.12
476.693	430.93
476.9	443.21
477.107	392.02
477.315	-1129.63
477.522	117.59
477.729	1624.89
477.936	-470.18
478.143	-1891.47
478.351	1614.65
478.558	-2192.52
478.765	-466.08
478.972	-367.78
479.179	637.77
479.386	828.23
479.593	1114.95
479.8	914.25
480.007	-2251.91
480.215	-335.01
480.422	1110.85
480.629	-3134.59
480.836	1274.69
481.043	3164.97
481.25	-658.59
481.457	-1834.13
481.664	-965.79
481.871	656.2
482.078	-1315.99
482.284	-1801.36
482.491	2067.25
482.698	1860.41
482.905	-1004.7
483.112	-3314.81
483.319	293.71
483.526	207.7
483.733	2384.69
483.94	-4076.65
484.146	-2622.59
484.353	111.44
484.56	-466.08
484.767	-4283.5
484.974	2175.8
485.18	1602.36
485.387	-543.91
485.594	-1402.01
485.801	2032.44
486.007	289.62
486.214	-834.72
486.421	-2811.01
486.627	-314.53
486.834	1022.79
487.041	586.57
487.247	-1594.51
487.454	-2399.37
487.661	457.55
487.867	664.4
488.074	-2315.4
488.281	1198.92
488.487	-322.73
488.694	-765.09
488.9	-341.16
489.107	-1414.29
489.313	-1174.68
489.52	-570.53
489.726	-2045.07
489.933	3007.27
490.139	2954.02
490.346	-308.39
490.552	322.38
490.759	-443.56
490.965	160.59
491.172	16036.45
491.378	-367.78
491.584	256.85
491.791	1882.94
491.997	179.03
492.204	-251.05
492.41	3250.98
492.616	-3110.01
492.823	-1633.43
493.029	-1305.75
493.235	2536.24
493.442	-234.66
493.648	639.82
493.854	-523.43
494.06	4735.76
494.267	848.71
494.473	-674.98
494.679	-1471.64
494.885	537.42
495.091	3236.64
495.298	1024.84
495.504	-3955.82
495.71	-179.37
495.916	-3255.42
496.122	2675.5
496.328	809.8
496.535	830.28
496.741	-550.05
496.947	934.73
497.153	-183.46
497.359	605
497.565	631.63
497.771	1796.92
497.977	52.05
498.183	-853.15
498.389	1082.18
498.595	-1768.59
498.801	480.08
499.007	1039.17
499.213	-478.37
499.419	-453.8
499.625	76.63
499.831	3318.56
500.037	-943.26
500.243	-1494.16
500.448	-449.7
500.654	1211.2
500.86	2030.39
501.066	-586.91
501.272	2597.68
501.478	-3216.51
501.684	-871.58
501.889	-2094.22
502.095	-1713.3
502.301	-279.72
502.507	709.45
502.712	-277.67
502.918	-1414.29
503.124	-1504.4
503.33	1033.03
503.535	-689.31
503.741	340.82
503.947	-281.77
504.152	-390.31
504.358	-2784.38
504.564	-484.52
504.769	666.44
504.975	4588.3
505.181	58.2
505.386	-2411.65
505.592	-808.09
505.797	1024.84
506.003	-3771.51
506.208	2104.12
506.414	-464.04
506.619	158.55
506.825	615.24
507.03	-2833.54
507.236	-1606.8
507.441	367.44
507.647	-722.08
507.852	170.83
508.058	1532.73
508.263	1430.34
508.469	-378.02
508.674	-3155.07
508.879	-552.1
509.085	-177.32
509.29	-1995.92
509.495	-1416.34
509.701	-1127.58
509.906	1059.65
510.111	-246.95
510.317	1227.59
510.522	363.34
510.727	2138.93
510.933	-498.85
511.138	471.89
511.343	-836.77
511.548	783.18
511.754	-1787.02
511.959	2599.73
512.164	76.63
512.369	3494.69
512.574	3531.55
512.779	-1754.26
512.985	-441.51
513.19	1256.26
513.395	338.77
513.6	-986.27
513.805	4.95
514.01	2093.88
514.215	-44.2
514.42	3056.42
514.625	-560.29
514.83	2716.46
515.035	74.58
515.24	168.79
515.445	3126.05
515.65	2091.83
515.855	502.61
516.06	-347.3
516.265	815.94
516.47	1565.5
516.675	269.14
516.88	-3345.53
517.085	289.62
517.29	-906.4
517.495	668.49
517.7	1827.64
517.904	33.62
518.109	781.13
518.314	-351.4
518.519	736.07
518.724	836.42
518.928	746.31
519.133	-228.52
519.338	377.68
519.543	555.85
519.747	1162.05
519.952	3224.36
520.157	6257.4
520.362	1117
520.566	2970.41
520.771	-2278.54
520.976	1360.7
521.18	3990.3
521.385	-1643.67
521.59	-703.65
521.794	641.87
521.999	2356.02
522.203	-1453.2
522.408	-423.08
522.612	-939.16
522.817	840.52
523.022	2208.56
523.226	0.85
523.431	-1293.46
523.635	353.1
523.84	2284.34
524.044	-543.91
524.249	1831.74
524.453	3197.73
524.657	363.34
524.862	6310.65
525.066	-953.5
525.271	-81.07
525.475	1475.39
525.679	123.73
525.884	-2362.5
526.088	1438.53
526.292	2845.48
526.497	346.96
526.701	-679.07
526.905	-261.29
527.11	234.32
527.314	-52.39
527.518	3697.44
527.722	-812.19
527.927	1426.24
528.131	-2305.16
528.335	5556.99
528.539	1856.31
528.744	3081
528.948	-1895.57
529.152	-1119.39
529.356	2798.38
529.56	625.48
529.764	308.05
529.968	306
530.173	8004.32
530.377	6503.15
530.581	-1768.59
530.785	1983.29
530.989	-433.32
531.193	394.06
531.397	-1154.2
531.601	490.32
531.805	1954.62
532.009	1878.84
532.213	371.54
532.417	801.61
532.621	2335.54
532.825	3480.35
533.029	248.66
533.233	965.45
533.436	967.49
533.64	439.12
533.844	2110.26
534.048	-312.49
534.252	1020.74
534.456	3685.15
534.66	2642.73
534.863	267.09
535.067	572.24
535.271	2683.69
535.475	-191.66
535.679	2315.06
535.882	3474.21
536.086	2317.11
536.29	2462.51
536.493	783.18
536.697	1737.53
536.901	1475.39
537.104	2362.16
537.308	1395.52
537.512	1602.36
537.715	4162.33
537.919	1936.18
538.123	2235.19
538.326	1848.12
538.53	3066.66
538.733	3824.41
538.937	2552.62
539.141	2188.08
539.344	3267.36
539.548	2284.34
539.751	5059.34
539.955	5802.75
540.158	7643.87
540.362	5163.78
540.565	3564.32
540.768	5069.58
540.972	11170.47
541.175	9136.84
541.379	6925.04
541.582	6451.95
541.785	8297.17
541.989	9716.42
542.192	5716.73
542.396	6763.25
542.599	8594.13
542.802	9083.59
543.005	7965.4
543.209	6705.9
543.412	8569.55
543.615	8188.63
543.819	8080.09
544.022	7064.3
544.225	7910.11
544.428	7914.2
544.631	10461.88
544.835	7484.13
545.038	6654.7
545.241	6955.76
545.444	9757.38
545.647	8458.96
545.85	7297.77
546.054	5837.56
546.257	4139.8
546.46	6705.9
546.663	6419.19
546.866	6714.09
547.069	7113.45
547.272	5501.7
547.475	6345.46
547.678	5425.92
547.881	4416.27
548.084	4758.28
548.287	5151.49
548.49	2751.28
548.693	4160.28
548.896	2069.3
549.099	4537.1
549.302	2841.39
549.505	2419.5
549.707	1983.29
549.91	4272.92
550.113	2118.45
550.316	1897.27
550.519	4506.38
550.722	4440.85
550.924	2040.63
551.127	3224.36
551.33	2386.74
551.533	1774.39
551.736	1475.39
551.938	1485.63
552.141	2974.5
552.344	936.78
552.546	3238.69
552.749	1897.27
552.952	1940.28
553.154	2009.91
553.357	2014.01
553.56	1764.15
553.762	7152.36
553.965	5798.65
554.168	1983.29
554.37	4021.02
554.573	2841.39
554.775	4428.56
554.978	3439.39
555.18	508.75
555.383	1567.55
555.585	5387.01
555.788	2839.34
555.99	1489.73
556.193	2122.55
556.395	3363.62
556.598	1221.44
556.8	1850.17
557.003	2265.91
557.205	5827.32
557.407	1745.72
557.61	2116.41
557.812	2753.32
558.015	4395.79
558.217	1952.57
558.419	2341.68
558.622	3969.82
558.824	2726.7
559.026	1243.97
559.228	2036.53
559.431	3500.83
559.633	3324.71
559.835	1948.47
560.037	3416.87
560.24	5083.91
560.442	4227.86
560.644	1606.46
560.846	3492.64
561.048	3832.6
561.25	4778.76
561.453	3431.2
561.655	2210.61
561.857	2843.43
562.059	2505.52
562.261	4778.76
562.463	3003.18
562.665	3007.27
562.867	3975.96
563.069	4018.97
563.271	4948.75
563.473	3816.22
563.675	3463.97
563.877	3539.74
564.079	2216.76
564.281	5387.01
564.483	3775.26
564.685	3224.36
564.887	2689.84
565.089	4682.51
565.291	4496.14
565.493	1977.14
565.694	5401.35
565.896	1985.34
566.098	4135.7
566.3	5198.6
566.502	2976.55
566.704	5763.84
566.905	715.59
567.107	1628.99
567.309	1579.84
567.511	4438.8
567.712	1745.72
567.914	2564.91
568.116	697.16
568.317	4989.71
568.519	3470.11
568.721	482.13
568.922	478.03
569.124	2900.78
569.326	5174.02
569.527	2868.01
569.729	2644.78
569.93	6898.41
570.132	2413.36
570.334	4211.48
570.535	1356.61
570.737	2108.21
570.938	6546.16
571.14	2372.4
571.341	3605.28
571.543	7142.12
571.744	2902.83
571.946	4604.69
572.147	1833.79
572.348	5673.73
572.55	4604.69
572.751	5053.19
572.953	2454.32
573.154	4662.03
573.355	6666.99
573.557	9106.12
573.758	3889.95
573.959	3715.87
574.161	5321.48
574.362	4803.34
574.563	7404.26
574.765	5978.87
574.966	6464.24
575.167	2607.92
575.368	5583.62
575.569	4066.07
575.771	6271.73
575.972	3271.46
576.173	4541.2
576.374	5890.81
576.575	5223.17
576.776	1882.94
576.978	2501.42
577.179	3599.13
577.38	4512.53
577.581	3054.37
577.782	3785.5
577.983	5475.07
578.184	5913.34
578.385	3541.79
578.586	4252.44
578.787	2794.28
578.988	4225.81
579.189	1971
579.39	2954.02
579.591	4027.16
579.792	2972.46
579.993	4807.44
580.194	4965.13
580.395	6007.55
580.596	4377.36
580.796	5208.84
580.997	2898.73
581.198	4010.78
581.399	5675.77
581.6	6404.85
581.801	2966.31
582.001	6769.39
582.202	2505.52
582.403	1643.32
582.604	7953.12
582.804	3844.89
583.005	4133.65
583.206	1026.89
583.407	5640.96
583.607	3668.77
583.808	2929.45
584.009	4903.69
584.209	4690.7
584.41	1749.82
584.61	3566.37
584.811	3443.49
585.012	2657.07
585.212	1934.14
585.413	3478.3
585.613	3433.25
585.814	2024.25
586.014	5257.99
586.215	2777.9
586.415	3470.11
586.616	2231.09
586.816	2904.87
587.017	4942.6
587.217	1762.11
587.418	6281.97
587.618	2878.25
587.819	2738.99
588.019	1278.79
588.219	748.36
588.42	3371.81
588.62	1106.76
588.82	1196.87
589.021	1547.07
589.221	3529.5
589.421	1866.55
589.622	4002.58
589.822	1332.03
590.022	5536.51
590.222	3765.02
590.423	1936.18
590.623	1098.56
590.823	3287.84
591.023	3035.94
591.223	1012.55
591.423	5866.24
591.624	2874.15
591.824	2470.7
592.024	1485.63
592.224	2341.68
592.424	5444.35
592.624	2624.3
592.824	3007.27
593.024	2167.6
593.224	5159.69
593.424	4682.51
593.624	2579.25
593.824	2634.54
594.024	3035.94
594.224	1106.76
594.424	2534.19
594.624	711.5
594.824	1942.33
595.024	1465.15
595.224	2546.48
595.424	992.07
595.624	1026.89
595.824	1313.6
596.023	3998.49
596.223	4066.07
596.423	1669.95
596.623	2790.19
596.823	-7.34
597.023	-586.91
597.222	6470.39
597.422	1104.71
597.622	-99.5
597.822	1262.4
598.021	2622.25
598.221	930.63
598.421	-335.01
598.62	1624.89
598.82	877.38
599.02	4848.4
599.219	4289.3
599.419	2626.35
599.618	865.1
599.818	2712.36
600.018	-441.51
600.217	1174.34
600.417	4074.26
600.616	1549.12
600.816	2083.64
601.015	2030.39
601.215	1172.29
601.414	846.66
601.614	840.52
601.813	-470.18
602.013	2169.65
602.212	1530.69
602.412	521.04
602.611	2726.7
602.81	2067.25
603.01	3207.97
603.209	1760.06
603.408	-1146.01
603.608	2503.47
603.807	1153.86
604.006	6030.07
604.206	414.54
604.405	1637.18
604.604	2079.54
604.803	1563.45
605.003	447.31
605.202	295.76
605.401	881.48
605.6	2491.18
605.8	648.01
605.999	570.19
606.198	1973.05
606.397	2276.15
606.596	1073.99
606.795	3013.42
606.994	3576.61
607.193	1141.57
607.393	3808.03
607.592	3722.01
607.791	1846.07
607.99	4029.21
608.189	3939.1
608.388	4889.35
608.587	4268.82
608.786	2503.47
608.985	787.27
609.184	2364.21
609.382	3582.75
609.581	3037.99
609.78	4938.51
609.979	4526.86
610.178	3234.6
610.377	2913.06
610.576	748.36
610.775	3345.19
610.973	3357.47
611.172	4086.55
611.371	2929.45
611.57	2368.31
611.769	5024.52
611.967	1813.31
612.166	4832.01
612.365	2876.2
612.564	3224.36
612.762	3377.95
612.961	3470.11
613.16	2401.07
613.358	3193.64
613.557	-68.78
613.756	3119.91
613.954	4410.13
614.153	1493.82
614.351	1426.24
614.55	658.25
614.749	3783.45
614.947	2214.71
615.146	901.96
615.344	2648.88
615.543	160.59
615.741	2454.32
615.94	3248.93
616.138	846.66
616.337	3248.93
616.535	1227.59
616.733	234.32
616.932	1532.73
617.13	3928.86
617.329	5108.49
617.527	-744.61
617.725	-1827.98
617.924	-1193.11
618.122	510.8
618.32	-617.63
618.519	-1473.68
618.717	2515.76
618.915	2147.12
619.114	1381.18
619.312	123.73
619.51	539.47
619.708	2370.35
619.906	-251.05
620.105	-402.6
620.303	-255.14
620.501	3924.76
620.699	-1805.46
620.897	951.11
621.095	2091.83
621.293	-1621.14
621.492	2085.69
621.69	50
621.888	1266.5
622.086	3345.19
622.284	1401.66
622.482	758.6
622.68	811.85
622.878	287.57
623.076	154.45
623.274	129.88
623.472	494.41
623.67	1432.38
623.868	-3228.79
624.065	1100.61
624.263	600.91
624.461	1225.54
624.659	-382.12
624.857	3310.37
625.055	2683.69
625.253	-343.21
625.45	168.79
625.648	346.96
625.846	404.3
626.044	412.5
626.242	662.35
626.439	2161.46
626.637	914.25
626.835	-95.4
627.032	2247.48
627.23	-1678.48
627.428	3724.06
627.626	1540.93
627.823	543.57
628.021	2835.24
628.218	2204.47
628.416	1502.01
628.614	-1242.26
628.811	-1834.13
629.009	-976.03
629.206	-404.64
629.404	-933.02
629.601	320.34
629.799	-2985.09
629.996	3459.87
630.194	1256.26
630.391	1006.41
630.589	-418.98
630.786	2124.6
630.984	512.85
631.181	-2858.11
631.378	-703.65
631.576	2057.01
631.773	-2544.77
631.97	-1535.12
632.168	-2763.9
632.365	303.95
632.562	549.71
632.76	-967.84
632.957	478.03
633.154	70.48
633.352	731.98
633.549	-564.39
633.746	2351.92
633.943	1162.05
634.14	-455.84
634.338	2382.64
634.535	-271.53
634.732	-124.07
634.929	3027.75
635.126	1033.03
635.323	131.92
635.52	2439.98
635.717	557.9
635.915	-138.41
636.112	70.48
636.309	-3058.81
636.506	-468.13
636.703	-3269.75
636.9	-304.29
637.097	5221.13
637.294	506.7
637.491	-984.22
637.688	2353.97
637.884	-1574.03
638.081	-423.08
638.278	39.76
638.475	-158.89
638.672	-584.87
638.869	-560.29
639.066	6001.4
639.263	861
639.459	824.14
639.656	-3392.63
639.853	-2147.47
640.05	4813.58
640.246	2151.22
640.443	-25.77
640.64	-4185.19
640.837	527.18
641.033	-3159.16
641.23	93.01
641.427	-160.94
641.623	832.33
641.82	-1019.04
642.017	-1137.82
642.213	-386.21
642.41	-752.8
642.606	1463.1
642.803	1424.19
643	394.06
643.196	-2260.1
643.393	2435.89
643.589	586.57
643.786	-926.88
643.982	4371.22
644.179	1618.75
644.375	-875.68
644.571	-306.34
644.768	-2356.36
644.964	-249
645.161	-283.81
645.357	2628.4
645.553	662.35
645.75	2384.69
645.946	318.29
646.143	-7.34
646.339	535.37
646.535	572.24
646.731	1391.42
646.928	101.2
647.124	-2481.28
647.32	2405.17
647.516	2063.16
647.713	-1649.81
647.909	64.34
648.105	-709.79
648.301	-4062.32
648.497	426.83
648.693	-588.96
648.89	-822.43
649.086	-70.83
649.282	-920.73
649.478	-597.15
649.674	295.76
649.87	2089.78
650.066	1645.37
650.262	-1598.61
650.458	1841.98
650.654	-1557.65
650.85	463.69
651.046	-515.23
651.242	-17.58
651.438	418.64
651.634	-2169.99
651.83	-1211.54
652.026	551.76
652.222	-261.29
652.417	-361.64
652.613	1416
652.809	-2471.04
653.005	-738.46
653.201	2571.05
653.397	-1883.28
653.592	-171.18
653.788	-1113.24
653.984	1698.62
654.18	4875.02
654.375	-1494.16
654.571	103.25
654.767	-154.79
654.962	-1535.12
655.158	-3726.45
655.354	-449.7
655.549	1389.38
655.745	1258.31
655.941	3670.81
656.136	-650.4
656.332	-1696.91
656.527	-162.98
656.723	1555.26
656.918	-2483.33
657.114	-484.52
657.309	-228.52
657.505	992.07
657.7	1469.25
657.896	-1395.86
658.091	-1791.12
658.287	-1070.23
658.482	-3226.75
658.678	-1062.04
658.873	394.06
659.068	3285.8
659.264	-396.45
659.459	35463.48
659.654	852.81
659.85	2480.94
660.045	-1703.06
660.24	1880.89
660.436	5233.41
660.631	-226.47
660.826	1927.99
661.021	508.75
661.217	2698.03
661.412	-1221.78
661.607	-2989.18
661.802	-302.25
661.997	-572.58
662.192	725.83
662.388	-3720.31
662.583	-548
662.778	496.46
662.973	-3224.7
663.168	-3544.18
663.363	-973.98
663.558	3965.72
663.753	1368.9
663.948	-2661.51
664.143	-2061.45
664.338	349.01
664.533	1067.85
664.728	-396.45
664.923	-1215.64
665.118	334.67
665.313	-1578.13
665.508	1471.29
665.703	1295.17
665.897	1323.84
666.092	580.43
666.287	512.85
666.482	-550.05
666.677	2067.25
666.872	1745.72
667.066	-752.8
667.261	-1189.02
667.456	201.55
667.651	1532.73
667.845	2038.58
668.04	609.1
668.235	-2514.05
668.429	1352.51
668.624	312.14
668.819	-697.5
669.013	-2753.66
669.208	783.18
669.402	-1836.17
669.597	76.63
669.792	-1199.26
669.986	3007.27
670.181	-2868.35
670.375	396.11
670.57	-3048.57
670.764	-1643.67
670.959	-339.11
671.153	-11.43
671.348	-322.73
671.542	2691.88
671.737	-2718.85
671.931	-4148.33
672.125	531.28
672.32	1782.59
672.514	1356.61
672.709	-1889.42
672.903	-58.54
673.097	-941.21
673.291	-1352.85
673.486	1659.71
673.68	260.95
673.874	-1768.59
674.069	-1146.01
674.263	1014.6
674.457	1563.45
674.651	947.01
674.845	-640.16
675.04	3566.37
675.234	-1852.56
675.428	-261.29
675.622	-1451.16
675.816	-2225.29
676.01	-957.6
676.204	-95.4
676.398	287.57
676.592	-705.7
676.787	-1219.74
676.981	33.62
677.175	201.55
677.369	-4549.73
677.563	4.95
677.757	-255.14
677.95	-1389.72
678.144	-4230.25
678.338	-1293.46
678.532	764.75
678.726	-3468.41
678.92	3328.8
679.114	117.59
679.308	222.03
679.502	-4488.29
679.695	-2776.19
679.889	-955.55
680.083	-3570.8
680.277	-3153.02
680.471	-306.34
680.664	-2362.5
680.858	580.43
681.052	-95.4
681.245	-1223.83
681.439	754.51
681.633	-1660.05
681.826	-367.78
682.02	-918.68
682.214	951.11
682.407	-2141.32
682.601	-746.66
682.795	-271.53
682.988	-726.18
683.182	-1756.3
683.375	-353.45
683.569	-777.37
683.762	893.77
683.956	1932.09
684.149	1784.63
684.343	1927.99
684.536	-2079.88
684.73	166.74
684.923	-3388.53
685.116	-2417.8
685.31	2173.75
685.503	916.3
685.696	-171.18
685.89	1088.32
686.083	-2761.86
686.276	-1567.89
686.47	242.51
686.663	-478.37
686.856	-306.34
687.05	1329.99
687.243	-525.47
687.436	1303.36
687.629	1977.14
687.822	502.61
688.016	-906.4
688.209	-1016.99
688.402	484.17
688.595	-119.98
688.788	-3073.15
688.981	-2157.71
689.174	2925.35
689.367	103.25
689.561	-640.16
689.754	-3916.91
689.947	-783.52
690.14	11.09
690.333	-4457.57
690.526	-638.11
690.719	1612.6
690.912	1979.19
691.104	346.96
691.297	-140.46
691.49	195.41
691.683	-1604.75
691.876	-4136.04
692.069	2753.32
692.262	-64.68
692.455	385.87
692.647	-371.88
692.84	-1961.1
693.033	578.38
693.226	701.26
693.419	-1494.16
693.611	-564.39
693.804	189.27
693.997	750.41
694.189	-226.47
694.382	-1277.08
694.575	3189.54
694.767	-68.78
694.96	-1457.3
695.153	-162.98
695.345	416.59
695.538	1884.98
695.731	467.79
695.923	-498.85
696.116	301.9
696.308	1633.08
696.501	172.88
696.693	2220.85
696.886	-1303.7
697.078	-3363.96
697.271	582.48
697.463	1006.41
697.655	-156.84
697.848	330.58
698.04	-1109.15
698.233	-3144.83
698.425	-779.42
698.617	1483.58
698.81	-1410.2
699.002	-1025.18
699.194	1801.02
699.387	930.63
699.579	-1152.15
699.771	-2708.61
699.963	-3654.77
700.156	-3236.99
700.348	1295.17
700.54	117.59
700.732	-1604.75
700.924	-957.6
701.117	-668.83
701.309	-1084.57
701.501	-3366.01
701.693	4182.81
701.885	-963.74
702.077	1272.64
702.269	443.21
702.461	1987.38
702.653	400.21
702.845	-543.91
703.037	641.87
703.229	2145.08
703.421	-830.62
703.613	-1518.74
703.805	3410.72
703.997	676.68
704.189	1444.67
704.381	-650.4
704.573	3705.63
704.765	-1025.18
704.957	1672
705.148	127.83
705.34	-1432.72
705.532	-44.2
705.724	-1186.97
705.916	-2542.72
706.107	1819.45
706.299	426.83
706.491	2018.1
706.682	1540.93
706.874	-887.97
707.066	-402.6
707.258	-1633.43
707.449	-322.73
707.641	5628.67
707.832	-29.87
708.024	-548
708.216	-107.69
708.407	791.37
708.599	-578.72
708.79	1940.28
708.982	-2124.94
709.173	-421.03
709.365	-1539.22
709.556	-205.99
709.748	-201.9
709.939	365.39
710.131	891.72
710.322	-2786.43
710.514	2648.88
710.705	-1010.84
710.896	711.5
711.088	627.53
711.279	938.82
711.47	2126.64
711.662	1108.8
711.853	-1453.2
712.044	-3562.61
712.236	340.82
712.427	29.52
712.618	-3558.52
712.809	-1170.58
713	-677.02
713.192	1473.34
713.383	-767.13
713.574	373.58
713.765	187.22
713.956	-1641.62
714.147	2007.86
714.338	-2204.81
714.53	1717.05
714.721	2593.58
714.912	-1229.98
715.103	-3042.43
715.294	736.07
715.485	1387.33
715.676	-3331.19
715.867	-4113.52
716.058	-820.38
716.249	1579.84
716.44	-257.19
716.63	-2077.83
716.821	-330.92
717.012	1401.66
717.203	-1346.71
717.394	-836.77
717.585	-3654.77
717.776	-1320.09
717.966	-1043.61
718.157	-1621.14
718.348	629.58
718.539	-81.07
718.73	1217.35
718.92	2378.55
719.111	-1449.11
719.302	502.61
719.492	-998.56
719.683	861
719.874	-1776.78
720.064	3932.95
720.255	-2892.93
720.446	-242.85
720.636	1577.79
720.827	1389.38
721.017	607.05
721.208	-511.14
721.398	-1528.98
721.589	1174.34
721.779	482.13
721.97	-4592.74
722.16	-2573.44
722.351	-3525.75
722.541	-1092.76
722.732	1389.38
722.922	1301.31
723.112	1788.73
723.303	-2256.01
723.493	-1402.01
723.683	1223.49
723.874	2319.15
724.064	488.27
724.254	1987.38
724.445	-1498.26
724.635	2386.74
724.825	-4109.42
725.015	-717.98
725.206	-1047.71
725.396	1413.95
725.586	-1567.89
725.776	1024.84
725.966	3685.15
726.157	1344.32
726.347	2106.17
726.537	17.24
726.727	2224.95
726.917	-2112.65
727.107	-992.41
727.297	-4297.83
727.487	2136.88
727.677	-1649.81
727.867	242.51
728.057	-218.28
728.247	498.51
728.437	856.9
728.627	-758.94
728.817	-771.23
729.007	494.41
729.197	756.55
729.387	-500.9
729.576	-345.25
729.766	1717.05
729.956	-441.51
730.146	-777.37
730.336	-2811.01
730.525	-279.72
730.715	-1979.53
730.905	29.52
731.095	-756.9
731.284	1004.36
731.474	1862.46
731.664	-556.19
731.853	-3847.28
732.043	-1883.28
732.233	-3155.07
732.422	1522.49
732.612	-1832.08
732.802	555.85
732.991	312.14
733.181	-4226.15
733.37	-2108.55
733.56	-822.43
733.749	992.07
733.939	-3019.9
734.128	1184.58
734.318	2591.53
734.507	-1254.55
734.697	-3603.57
734.886	1590.08
735.076	-2606.21
735.265	1901.37
735.454	529.23
735.644	-2563.2
735.833	-2118.79
736.022	-146.6
736.212	-957.6
736.401	-494.76
736.59	1336.13
736.779	-881.82
736.969	-2692.23
737.158	414.54
737.347	-2012.3
737.536	-339.11
737.726	-1600.66
737.915	1231.68
738.104	924.49
738.293	-1053.85
738.482	109.4
738.671	-1631.38
738.86	-3552.37
739.049	1008.45
739.238	-1272.98
739.427	-955.55
739.616	-3024
739.806	-3206.27
739.995	-4303.98
740.183	-2798.72
740.372	-36.01
740.561	-810.14
740.75	-4439.14
740.939	439.12
741.128	396.11
741.317	1274.69
741.506	-992.41
741.695	428.88
741.884	1084.23
742.072	1715
742.261	-165.03
742.45	-380.07
742.639	727.88
742.828	645.96
743.016	-543.91
743.205	-2294.92
743.394	-2190.47
743.582	1606.46
743.771	176.98
743.96	924.49
744.148	256.85
744.337	148.31
744.526	717.64
744.714	-619.68
744.903	4035.35
745.091	78.68
745.28	2331.44
745.468	1268.55
745.657	934.73
745.845	848.71
746.034	-304.29
746.222	373.58
746.411	926.54
746.599	1313.6
746.788	1151.81
746.976	-390.31
747.165	371.54
747.353	852.81
747.541	4989.71
747.73	-1922.19
747.918	2425.65
748.106	1962.81
748.295	2726.7
748.483	1831.74
748.671	1338.18
748.859	1305.41
749.048	2982.7
749.236	1061.7
749.424	803.66
749.612	2970.41
749.8	1094.47
749.989	1329.99
750.177	2159.41
750.365	2609.97
750.553	2489.14
750.741	-281.77
750.929	5489.41
751.117	1477.44
751.305	2345.78
751.493	1323.84
751.681	189.27
751.869	1690.43
752.057	2900.78
752.245	1340.22
752.433	3408.67
752.621	2356.02
752.809	3476.26
752.997	3433.25
753.185	2904.87
753.373	2159.41
753.56	1876.79
753.748	3150.63
753.936	2237.24
754.124	2695.98
754.312	1678.14
754.499	4490
754.687	3240.74
754.875	3812.12
755.063	1860.41
755.25	3740.44
755.438	4629.26
755.626	3662.62
755.813	1063.75
756.001	3566.37
756.189	1409.86
756.376	2063.16
756.564	2552.62
756.751	4952.84
756.939	1368.9
757.127	5124.87
757.314	2499.38
757.502	1174.34
757.689	4651.79
757.877	3920.67
758.064	3709.72
758.251	1760.06
758.439	4059.93
758.626	5061.38
758.814	1919.8
759.001	4700.94
759.188	4475.67
759.376	770.89
759.563	3812.12
759.75	4309.78
759.938	2329.39
760.125	2126.64
760.312	2911.02
760.5	2487.09
760.687	3848.99
760.874	2079.54
761.061	3943.19
761.248	351.06
761.436	6421.24
761.623	2523.95
761.81	3126.05
761.997	3900.19
762.184	2423.6
762.371	2014.01
762.558	2648.88
762.745	4543.25
762.932	3003.18
763.119	3279.65
763.306	3048.23
763.493	3056.42
763.68	3433.25
763.867	4641.55
764.054	1545.02
764.241	2353.97
764.428	4539.15
764.615	2786.09
764.802	2765.61
764.989	1985.34
765.176	3087.14
765.362	4010.78
765.549	2081.59
765.736	10359.48
765.923	4457.23
766.11	4535.06
766.296	2876.2
766.483	342.86
766.67	3140.39
766.857	4072.22
767.043	1667.9
767.23	3375.91
767.417	4756.24
767.603	3494.69
767.79	2423.6
767.976	5186.31
768.163	4789
768.35	3744.54
768.536	2517.81
768.723	2650.92
768.909	4526.86
769.096	5301
769.282	2650.92
769.469	2360.11
769.655	5323.52
769.842	3644.19
770.028	1471.29
770.214	3021.61
770.401	3164.97
770.587	2048.82
770.774	236.37
770.96	-21.67
771.146	3404.58
771.333	3586.85
771.519	2134.84
771.705	3248.93
771.891	1565.5
772.078	7457.51
772.264	4014.87
772.45	2439.98
772.636	3037.99
772.822	2450.22
773.009	6030.07
773.195	3621.66
773.381	3613.47
773.567	3939.1
773.753	1927.99
773.939	1039.17
774.125	944.97
774.311	2724.65
774.497	1012.55
774.683	2093.88
774.869	4434.71
775.055	5690.11
775.241	1848.12
775.427	3302.18
775.613	1864.5
775.799	4821.77
775.985	1741.63
776.171	2868.01
776.357	2933.54
776.543	2841.39
776.729	1952.57
776.914	2755.37
777.1	3963.67
777.286	6546.16
777.472	2380.59
777.657	2155.32
777.843	5569.28
778.029	5337.86
778.215	3328.8
778.4	2577.2
778.586	5477.12
778.772	4244.24
778.957	3885.85
779.143	1471.29
779.329	2806.57
779.514	1669.95
779.7	2747.18
779.885	682.83
780.071	3291.94
780.256	3273.51
780.442	3052.33
780.627	799.56
780.813	3912.47
780.998	4819.72
781.184	3654.43
781.369	1561.41
781.555	3758.88
781.74	2765.61
781.925	4786.96
782.111	1889.08
782.296	2759.47
782.481	3490.59
782.667	2683.69
782.852	4236.05
783.037	2726.7
783.223	2624.3
783.408	2698.03
783.593	3832.6
783.778	2011.96
783.963	3314.47
784.149	3978.01
784.334	2491.18
784.519	3005.22
784.704	1512.25
784.889	3195.68
785.074	1856.31
785.259	2554.67
785.444	5552.9
785.629	1530.69
785.814	871.24
785.999	2458.42
786.184	5710.59
786.369	1950.52
786.554	770.89
786.739	4227.86
786.924	3410.72
787.109	3044.13
787.294	4426.51
787.479	4379.41
787.664	2956.07
787.849	4336.4
788.034	3937.05
788.218	4072.22
788.403	3189.54
788.588	4453.14
788.773	3566.37
788.957	2257.71
789.142	4711.18
789.327	3416.87
789.512	2497.33
789.696	6259.45
789.881	6677.23
790.066	2962.22
790.25	5821.18
790.435	3105.57
790.619	4920.07
790.804	3818.27
790.989	3240.74
791.173	6390.52
791.358	4285.2
791.542	2509.62
791.727	2732.84
791.911	2757.42
792.096	2306.87
792.28	2517.81
792.465	2843.43
792.649	2677.55
792.833	4170.52
793.018	2679.6
793.202	4094.74
793.386	5921.53
793.571	4971.27
793.755	3654.43
793.939	2638.64
794.124	3134.25
794.308	3828.51
794.492	2913.06
794.676	2452.27
794.861	3394.34
795.045	4535.06
795.229	1428.29
795.413	4428.56
795.597	3001.13
795.781	3676.96
795.966	6171.38
796.15	3627.81
796.334	7676.64
796.518	5870.33
796.702	2665.26
796.886	4291.35
797.07	5876.48
797.254	5040.9
797.438	3310.37
797.622	3173.16
797.806	4018.97
797.99	5012.23
798.174	4008.73
798.358	5903.1
798.541	5792.51
798.725	6470.39
798.909	3836.7
799.093	4674.32
799.277	4346.64
799.461	5563.14
799.644	1114.95
799.828	4074.26
800.012	6347.51
800.196	3879.71
800.379	3912.47
800.563	2702.12
800.747	5763.84
800.93	3932.95
801.114	3468.06
801.298	2937.64
801.481	6222.58
801.665	6208.25
801.848	2306.87
802.032	3697.44
802.216	7713.5
802.399	3963.67
802.583	2585.39
802.766	2022.2
802.95	4657.93
803.133	6052.6
803.317	2597.68
803.5	2411.31
803.683	4303.64
803.867	2614.06
804.05	5214.98
804.233	6150.9
804.417	6994.67
804.6	3857.18
804.783	4897.55
804.967	6054.65
805.15	5018.38
805.333	4442.9
805.517	4875.02
805.7	2915.11
805.883	4043.54
806.066	5798.65
806.249	6193.91
806.432	2667.31
806.616	4604.69
806.799	2728.75
806.982	3623.71
807.165	4817.68
807.348	4885.26
807.531	3193.64
807.714	3955.48
807.897	4950.79
808.08	5292.8
808.263	5909.24
808.446	5718.78
808.629	4811.53
808.812	3844.89
808.995	4551.44
809.178	6578.93
809.361	5944.06
809.544	6140.66
809.726	7252.71
809.909	6171.38
810.092	5790.46
810.275	5925.63
810.458	7875.29
810.64	6157.05
810.823	5843.71
811.006	4932.36
811.189	7414.5
811.371	3953.43
811.554	4741.9
811.737	6255.35
811.919	6191.86
812.102	4072.22
812.285	2769.71
812.467	5563.14
812.65	4389.65
812.832	3564.32
813.015	6511.35
813.197	5952.25
813.38	5722.88
813.562	6775.53
813.745	3142.44
813.927	2851.63
814.11	5835.52
814.292	4219.67
814.475	3152.68
814.657	3928.86
814.839	5305.09
815.022	2990.89
815.204	7643.87
815.386	6904.56
815.569	6091.51
815.751	2249.52
815.933	5763.84
816.116	5583.62
816.298	5673.73
816.48	4145.94
816.662	3738.4
816.844	4750.09
817.027	4408.08
817.209	3552.03
817.391	2861.87
817.573	4016.92
817.755	3916.57
817.937	4639.5
818.119	3574.56
818.301	3621.66
818.483	4070.17
818.665	3461.92
818.847	5126.92
819.029	4416.27
819.211	2947.88
819.393	4100.89
819.575	6931.18
819.757	6320.88
819.939	4872.97
820.121	4342.55
820.303	4674.32
820.485	7271.14
820.666	6677.23
820.848	6947.56
821.03	4354.83
821.212	5952.25
821.394	2597.68
821.575	4995.85
821.757	6671.09
821.939	4774.67
822.121	5104.39
822.302	7258.85
822.484	5882.62
822.666	2145.08
822.847	3736.35
823.029	1516.35
823.21	5485.31
823.392	2409.26
823.573	4227.86
823.755	2769.71
823.937	3177.25
824.118	3224.36
824.3	9214.66
824.481	3412.77
824.662	3500.83
824.844	4246.29
825.025	5423.87
825.207	2532.14
825.388	4256.53
825.569	3134.25
825.751	3648.29
825.932	7029.48
826.113	2384.69
826.295	5288.71
826.476	5073.67
826.657	4174.61
826.839	3914.52
827.02	5171.97
827.201	7619.3
827.382	4059.93
827.563	5147.4
827.744	3724.06
827.926	4526.86
828.107	6179.58
828.288	2646.83
828.469	4829.96
828.65	5335.81
828.831	2296.63
829.012	4084.5
829.193	6204.15
829.374	3500.83
829.555	6367.99
829.736	9382.6
829.917	7072.49
830.098	5692.16
830.279	2085.69
830.46	3189.54
830.641	4186.9
830.822	4121.37
831.002	5645.06
831.183	3222.31
831.364	5464.83
831.545	5411.59
831.726	4342.55
831.906	3953.43
832.087	5241.61
832.268	5040.9
832.449	6277.88
832.629	2181.94
832.81	3648.29
832.991	3121.96
833.171	4791.05
833.352	4551.44
833.532	5921.53
833.713	3463.97
833.894	3797.79
834.074	1776.44
834.255	3314.47
834.435	3134.25
834.616	3261.22
834.796	3547.94
834.977	4883.21
835.157	6884.08
835.338	3025.7
835.518	1987.38
835.698	4010.78
835.879	2689.84
836.059	3996.44
836.239	3955.48
836.42	3898.14
836.6	4317.97
836.78	1647.42
836.961	2941.74
837.141	5169.93
837.321	2646.83
837.501	7174.89
837.682	3199.78
837.862	3552.03
838.042	8993.48
838.222	2818.86
838.402	3234.6
838.582	3597.09
838.763	4268.82
838.943	3433.25
839.123	5714.69
839.303	3963.67
839.483	5118.73
839.663	1424.19
839.843	13851.27
840.023	5548.8
840.203	5143.3
840.383	3296.04
840.563	2966.31
840.742	3654.43
840.922	2698.03
841.102	4657.93
841.282	3871.51
841.462	3832.6
841.642	3191.59
841.822	2071.35
842.001	1266.5
842.181	4268.82
842.361	4539.15
842.541	5344
842.72	4395.79
842.9	3498.78
843.08	3930.91
843.259	3033.9
843.439	3388.19
843.619	2671.4
843.798	3498.78
843.978	4500.24
844.157	2990.89
844.337	4594.45
844.517	2880.3
844.696	5872.38
844.876	4698.89
845.055	2272.05
845.235	4608.78
845.414	3625.76
845.593	2167.6
845.773	2849.58
845.952	875.34
846.132	1669.95
846.311	1936.18
846.49	4315.92
846.67	4178.71
846.849	2573.1
847.028	1893.18
847.208	4453.14
847.387	2356.02
847.566	6077.18
847.745	2081.59
847.924	4358.93
848.104	4248.34
848.283	4039.45
848.462	4848.4
848.641	5235.46
848.82	3486.5
848.999	5589.76
849.178	2716.46
849.358	4721.42
849.537	3599.13
849.716	2685.74
849.895	1864.5
850.074	5327.62
850.253	5456.64
850.432	3627.81
850.61	3271.46
850.789	2810.67
850.968	5423.87
851.147	5554.94
851.326	2347.83
851.505	3287.84
851.684	3795.74
851.863	5174.02
852.041	3906.33
852.22	3085.09
852.399	2556.72
852.578	4328.21
852.756	1405.76
852.935	2929.45
853.114	4870.92
853.293	1880.89
853.471	6501.11
853.65	3672.86
853.828	2652.97
854.007	2290.48
854.186	3746.59
854.364	5057.29
854.543	3978.01
854.721	2829.1
854.9	4178.71
855.078	5339.91
855.257	2825
855.435	578.38
855.614	3652.38
855.792	2810.67
855.971	2900.78
856.149	1602.36
856.327	4197.14
856.506	3574.56
856.684	2534.19
856.862	2337.59
857.041	101.2
857.219	4985.61
857.397	2466.61
857.576	2657.07
857.754	2732.84
857.932	4688.65
858.11	3031.85
858.288	2935.59
858.467	1270.59
858.645	1518.4
858.823	2726.7
859.001	3816.22
859.179	1796.92
859.357	2313.01
859.535	4197.14
859.713	4496.14
859.891	4182.81
860.069	6621.94
860.247	2609.97
860.425	987.97
860.603	3855.13
860.781	5045
860.959	3795.74
861.137	877.38
861.315	1862.46
861.493	3584.8
861.67	4694.8
861.848	4528.91
862.026	2286.39
862.204	2423.6
862.382	2716.46
862.559	2974.5
862.737	4133.65
862.915	4363.03
863.093	2517.81
863.27	4780.81
863.448	4670.22
863.626	3308.32
863.803	2865.96
863.981	1909.56
864.158	809.8
864.336	2069.3
864.514	1653.56
864.691	1246.02
864.869	2026.29
865.046	1565.5
865.224	3244.84
865.401	4326.16
865.578	2288.43
865.756	5253.89
865.933	865.1
866.111	4557.58
866.288	1782.59
866.465	2468.66
866.643	1385.28
866.82	2032.44
866.997	2122.55
867.175	2401.07
867.352	2220.85
867.529	222.03
867.706	1889.08
867.884	3003.18
868.061	2677.55
868.238	2136.88
868.415	1211.2
868.592	1905.46
868.77	1874.74
868.947	3982.1
869.124	2147.12
869.301	678.73
869.478	3015.46
869.655	-109.74
869.832	2724.65
870.009	5399.3
870.186	5286.66
870.363	2775.85
870.54	2812.71
870.717	2392.88
870.894	2392.88
871.071	3404.58
871.247	885.58
871.424	1784.63
871.601	2442.03
871.778	1821.5
871.955	2374.45
872.132	2978.6
872.308	2671.4
872.485	2390.83
872.662	1954.62
872.839	4277.01
873.015	1712.96
873.192	3046.18
873.369	2061.11
873.545	2022.2
873.722	2665.26
873.898	2605.87
874.075	1770.3
874.252	2646.83
874.428	2157.36
874.605	2562.86
874.781	-257.19
874.958	1311.55
875.134	3181.35
875.311	3150.63
875.487	2931.5
875.663	4563.73
875.84	2675.5
876.016	3394.34
876.193	3142.44
876.369	1360.7
876.545	1612.6
876.722	1346.37
876.898	2399.02
877.074	2738.99
877.25	3572.51
877.427	7693.02
877.603	1940.28
877.779	1882.94
877.955	2229.04
878.132	4475.67
878.308	3855.13
878.484	5352.2
878.66	1045.32
878.836	2407.22
879.012	2376.5
879.188	2814.76
879.364	2413.36
879.54	1790.78
879.716	715.59
879.892	2558.77
880.068	3924.76
880.244	5622.53
880.42	1274.69
880.596	1936.18
880.772	1735.48
880.948	1372.99
881.124	3222.31
881.3	6929.13
881.475	2265.91
881.651	2026.29
881.827	1751.87
882.003	2126.64
882.178	158.55
882.354	1823.55
882.53	1299.27
882.706	2218.8
882.881	2814.76
883.057	756.55
883.233	2267.95
883.408	3980.06
883.584	1524.54
883.759	658.25
883.935	455.5
884.111	267.09
884.286	1536.83
884.462	64.34
884.637	1495.87
884.813	430.93
884.988	1733.43
885.164	5284.61
885.339	955.21
885.514	3650.33
885.69	1270.59
885.865	242.51
886.04	2720.56
886.216	1620.8
886.391	3281.7
886.566	2138.93
886.742	289.62
886.917	2208.56
887.092	4225.81
887.267	598.86
887.443	-13.48
887.618	1067.85
887.793	1272.64
887.968	2270
888.143	486.22
888.318	2079.54
888.494	3140.39
888.669	2007.86
888.844	2167.6
889.019	1741.63
889.194	1571.65
889.369	1157.96
889.544	1418.05
889.719	3431.2
889.894	4365.07
890.069	2634.54
890.243	3025.7
890.418	1608.51
890.593	1073.99
890.768	1983.29
890.943	4025.11
891.118	1680.19
891.293	2296.63
891.467	994.12
891.642	4944.65
891.817	1506.11
891.992	2339.63
892.166	1067.85
892.341	3269.41
892.516	1958.71
892.69	2108.21
892.865	181.07
893.04	1663.8
893.214	3343.14
893.389	2616.11
893.563	4985.61
893.738	5376.77
893.912	1432.38
894.087	2433.84
894.261	3308.32
894.436	977.73
894.61	4725.52
894.785	2280.24
894.959	1981.24
895.134	4072.22
895.308	820.04
895.482	3025.7
895.657	842.57
895.831	1178.44
896.005	7715.55
896.18	1475.39
896.354	2206.52
896.528	185.17
896.702	2210.61
896.877	3912.47
897.051	482.13
897.225	2356.02
897.399	2456.37
897.573	1190.72
897.747	2462.51
897.922	1979.19
898.096	3752.73
898.27	498.51
898.444	1233.73
898.618	2331.44
898.792	2073.4
898.966	2118.45
899.14	2745.13
899.314	2657.07
899.488	3851.03
899.662	1907.51
899.835	1907.51
900.009	1966.9
900.183	146.26
900.357	5309.19
900.531	932.68
900.705	652.11
900.878	-181.42
901.052	555.85
901.226	2417.46
901.4	2018.1
901.573	607.05
901.747	-5.29
901.921	1151.81
902.095	1469.25
902.268	2681.64
902.442	-269.48
902.615	-1070.23
902.789	2335.54
902.963	6738.67
903.136	627.53
903.31	2999.08
903.483	-574.63
903.657	2310.96
903.83	891.72
904.004	-2624.64
904.177	994.12
904.35	64.34
904.524	-2911.36
904.697	809.8
904.871	770.89
905.044	1823.55
905.217	5161.73
905.391	3533.6
905.564	1434.43
905.737	844.62
905.91	25.43
906.084	-2630.79
906.257	846.66
906.43	-3466.36
906.603	467.79
906.776	-4394.09
906.949	-1184.92
907.123	-1424.53
907.296	-339.11
907.469	2327.35
907.642	-437.41
907.815	1622.84
907.988	-105.64
908.161	-871.58
908.334	-1219.74
908.507	1078.08
908.68	680.78
908.853	152.4
909.026	-545.95
909.199	-423.08
909.371	2620.21
909.544	1700.67
909.717	43.86
909.89	-1567.89
910.063	-2036.88
910.236	45.91
910.408	404.3
910.581	-3464.31
910.754	-3568.76
910.927	-4058.22
911.099	306
911.272	738.12
911.445	271.19
911.617	-359.59
911.79	1852.22
911.962	-277.67
912.135	-1240.22
912.308	172.88
912.48	-2421.89
912.653	-1705.1
912.825	-1229.98
912.998	-609.44
913.17	1403.71
913.343	1581.89
913.515	-861.34
913.687	-1823.89
913.86	129.88
914.032	1825.59
914.205	-412.84
914.377	-111.78
914.549	-4447.33
914.721	842.57
914.894	-2438.28
915.066	-408.74
915.238	-2057.36
915.41	2233.14
915.583	369.49
915.755	-2014.35
915.927	131.92
916.099	1325.89
916.271	-871.58
916.443	-2149.51
916.616	-3155.07
916.788	3779.36
916.96	2454.32
917.132	-4559.97
917.304	-64.68
917.476	1934.14
917.648	396.11
917.82	-4258.92
917.992	1239.87
918.164	1149.76
918.335	496.46
918.507	1340.22
918.679	-3796.08
918.851	1737.53
919.023	-648.35
919.195	86.87
919.366	-3048.57
919.538	-3882.1
919.71	-2473.09
919.882	-1483.92
920.053	-2325.64
920.225	-1664.15
920.397	1536.83
920.568	-1887.37
920.74	-1471.64
920.912	-1350.81
921.083	-2854.02
921.255	-2450.57
921.426	-2874.49
921.598	15.19
921.77	-1326.23
921.941	-2606.21
922.113	-2264.2
922.284	1372.99
922.455	-1815.69
922.627	-3011.71
922.798	-2768
922.97	-2393.22
923.141	-2256.01
923.312	-4299.88
923.484	656.2
923.655	-3200.12
923.826	848.71
923.998	-1152.15
924.169	817.99
924.34	-2403.46
924.511	9.05
924.683	80.72
924.854	-1414.29
925.025	-122.02
925.196	975.69
925.367	932.68
925.538	310.1
925.709	-382.12
925.881	492.37
926.052	-1430.68
926.223	-763.04
926.394	910.15
926.565	-1250.46
926.736	-4508.77
926.907	-2358.41
927.078	277.33
927.248	3851.03
927.419	762.7
927.59	-4265.07
927.761	918.34
927.932	938.82
928.103	-416.93
928.274	-1549.46
928.444	-593.06
928.615	-1856.65
928.786	-1285.27
928.957	-2919.55
929.127	-1713.3
929.298	138.07
929.469	-1318.04
929.639	-666.78
929.81	-175.27
929.981	-109.74
930.151	504.65
930.322	3552.03
930.492	600.91
930.663	3293.99
930.833	-1744.02
931.004	-429.22
931.174	496.46
931.345	54.1
931.515	-2163.85
931.686	-332.97
931.856	2196.28
932.027	-3148.92
932.197	1180.48
932.367	-2309.26
932.538	1528.64
932.708	-1885.33
932.878	15.19
933.048	-619.68
933.219	-1402.01
933.389	1858.36
933.559	-1836.17
933.729	-2528.39
933.9	396.11
934.07	-3177.59
934.24	-3269.75
934.41	109.4
934.58	45.91
934.75	942.92
934.92	-4168.81
935.09	183.12
935.26	-1754.26
935.43	2145.08
935.6	-804
935.77	832.33
935.94	406.35
936.11	-1897.61
936.28	-1805.46
936.45	1065.8
936.62	109.4
936.79	719.69
936.96	-441.51
937.129	-873.63
937.299	86.87
937.469	2.9
937.639	150.36
937.808	-779.42
937.978	-3564.66
938.148	1473.34
938.317	82.77
938.487	385.87
938.657	-2389.13
938.826	-2608.26
938.996	-593.06
939.166	-4598.88
939.335	-3376.25
939.505	-48.3
939.674	-1324.18
939.844	-2647.17
940.013	262.99
940.183	-3574.9
940.352	-2378.89
940.522	-521.38
940.691	-1348.76
940.86	813.9
941.03	-924.83
941.199	11.09
941.368	482.13
941.538	1454.91
941.707	-2456.71
941.876	-511.14
942.046	1039.17
942.215	-21.67
942.384	-2825.34
942.553	-418.98
942.722	-674.98
942.892	1680.19
943.061	-4041.84
943.23	424.78
943.399	3513.12
943.568	-658.59
943.737	2016.05
943.906	146.26
944.075	-2059.4
944.244	1389.38
944.413	-871.58
944.582	-3818.61
944.751	31.57
944.92	-554.15
945.089	521.04
945.258	-861.34
945.427	-720.03
945.596	-793.76
945.764	-500.9
945.933	-1238.17
946.102	1053.51
946.271	-1117.34
946.44	-679.07
946.608	-1576.08
946.777	-1385.62
946.946	-328.87
947.114	2011.96
947.283	-892.06
947.452	-2872.45
947.62	-1830.03
947.789	961.35
947.958	-1326.23
948.126	353.1
948.295	232.27
948.463	-1066.14
948.632	-1289.37
948.8	-804
948.969	-3083.39
949.137	-717.98
949.305	-2280.58
949.474	858.95
949.642	748.36
949.811	576.33
949.979	-367.78
950.147	-3468.41
950.316	-3220.6
950.484	-2940.03
950.652	-1805.46
950.82	1577.79
950.989	-4101.23
951.157	-1963.15
951.325	-3050.62
951.493	1557.31
951.661	850.76
951.83	861
951.998	-3757.17
952.166	-1025.18
952.334	-2901.12
952.502	2851.63
952.67	1035.08
952.838	758.6
953.006	2444.08
953.174	398.16
953.342	430.93
953.51	-277.67
953.678	-760.99
953.846	-3918.96
954.014	-279.72
954.181	2218.8
954.349	-2559.11
954.517	-2299.02
954.685	-2561.16
954.853	-1592.47
955.02	-2763.9
955.188	-2794.62
955.356	-1621.14
955.524	1215.3
955.691	-666.78
955.859	-2243.72
956.027	-283.81
956.194	2800.43
956.362	-1578.13
956.529	824.14
956.697	-1248.41
956.865	494.41
957.032	1551.17
957.2	-2821.25
957.367	-3083.39
957.535	568.14
957.702	920.39
957.87	-2935.93
958.037	338.77
958.204	-1664.15
958.372	1061.7
958.539	322.38
958.706	-361.64
958.874	3179.3
959.041	498.51
959.208	-2747.52
959.376	-1629.33
959.543	1217.35
959.71	-140.46
959.877	1246.02
960.044	-48.3
960.212	2571.05
960.379	3111.72
960.546	543.57
960.713	-3884.14
960.88	-730.27
961.047	4.95
961.214	23843.31
961.381	2378.55
961.548	-1264.79
961.715	-427.17
961.882	-3067
962.049	-797.85
962.216	-1062.04
962.383	-2358.41
962.55	-685.22
962.717	1635.13
962.883	877.38
963.05	2773.8
963.217	711.5
963.384	-1471.64
963.551	-349.35
963.717	-2116.75
963.884	54.1
964.051	562
964.218	1446.72
964.384	5997.31
964.551	-2309.26
964.717	-4148.33
964.884	-941.21
965.051	-2167.95
965.217	-2884.73
965.384	-4142.19
965.55	1182.53
965.717	957.25
965.883	195.41
966.05	-1588.37
966.216	2202.42
966.383	1053.51
966.549	-15.53
966.716	-765.09
966.882	-2823.3
967.048	-1866.89
967.215	-3095.68
967.381	-1592.47
967.547	1999.67
967.713	2249.52
967.88	660.3
968.046	-3605.62
968.212	-1019.04
968.378	1215.3
968.545	-3454.07
968.711	1153.86
968.877	-699.55
969.043	99.16
969.209	-2636.93
969.375	1239.87
969.541	2038.58
969.707	2757.42
969.873	1250.11
970.039	-410.79
970.205	1876.79
970.371	4780.81
970.537	1567.55
970.703	187.22
970.869	-1033.37
971.035	1835.83
971.201	209.75
971.367	-2049.16
971.532	-386.21
971.698	-666.78
971.864	1440.58
972.03	-2600.07
972.195	-1770.64
972.361	1962.81
972.527	-1297.56
972.693	3203.88
972.858	1688.38
973.024	-3050.62
973.19	-277.67
973.355	428.88
973.521	674.64
973.686	1434.43
973.852	-3548.28
974.017	4272.92
974.183	-3386.49
974.348	709.45
974.514	-3435.64
974.679	-83.11
974.845	-2038.92
975.01	-378.02
975.175	-4269.16
975.341	17607.24
975.506	-212.14
975.672	594.76
975.837	3984.15
976.002	-56.49
976.167	-1197.21
976.333	4881.16
976.498	-740.51
976.663	-2374.79
976.828	1145.67
976.993	-1602.71
977.159	416.59
977.324	672.59
977.489	3336.99
977.654	-103.59
977.819	-1211.54
977.984	-365.73
978.149	2736.94
978.314	1413.95
978.479	-1137.82
978.644	-2546.82
978.809	-842.91
978.974	-2870.4
979.139	2206.52
979.304	140.12
979.469	-937.12
979.633	-947.36
979.798	-449.7
979.963	-1901.71
980.128	3031.85
980.293	-2997.37
980.457	-1750.16
980.622	-3323
980.787	-3044.48
980.951	-269.48
981.116	-335.01
981.281	-2346.12
981.445	-167.08
981.61	803.66
981.775	-2024.59
981.939	-3933.29
982.104	2100.02
982.268	1270.59
982.433	1489.73
982.597	-1879.18
982.762	2716.46
982.926	897.86
983.091	-644.26
983.255	-3857.52
983.419	-2411.65
983.584	1721.15
983.748	80.72
983.912	-81.07
984.077	2022.2
984.241	2292.53
984.405	-2473.09
984.57	2001.72
984.734	-445.6
984.898	-138.41
985.062	-1299.61
985.226	-1815.69
985.39	2808.62
985.555	74.58
985.719	2011.96
985.883	320.34
986.047	-1813.65
986.211	793.42
986.375	31.57
986.539	-1721.49
986.703	-1680.53
986.867	-117.93
987.031	729.93
987.195	-1207.45
987.359	-2071.69
987.523	414.54
987.686	-2888.83
987.85	-2555.01
988.014	758.6
988.178	-1526.93
988.342	1037.13
988.506	652.11
988.669	-302.25
988.833	459.6
988.997	861
989.16	-507.04
989.324	-1.19
989.488	2954.02
989.651	306
989.815	3197.73
989.979	-1088.67
990.142	287.57
990.306	-597.15
990.469	1796.92
990.633	1174.34
990.796	2409.26
990.96	-560.29
991.123	320.34
991.286	1747.77
991.45	1131.33
991.613	-1959.05
991.777	-3388.53
991.94	-3011.71
992.103	686.92
992.267	2804.52
992.43	-1006.75
992.593	389.97
992.756	430.93
992.92	908.1
993.083	846.66
993.246	-158.89
993.409	-4101.23
993.572	-2948.22
993.735	-548
993.899	500.56
994.062	-359.59
994.225	-840.86
994.388	332.62
994.551	2575.15
994.714	-380.07
994.877	-449.7
995.04	-2270.34
995.203	-1528.98
995.366	1176.39
995.528	-1342.61
995.691	1059.65
995.854	-1832.08
996.017	-785.57
996.18	-3888.24
996.343	-537.76
996.505	1893.18
996.668	887.62
996.831	-459.94
996.994	-441.51
997.156	-240.81
997.319	-1817.74
997.482	1506.11
997.644	-2337.93
997.807	1356.61
997.97	-3275.9
998.132	-1127.58
998.295	1381.18
998.457	451.41
998.62	-1414.29
998.782	-1940.62
998.945	344.91
999.107	256.85
999.27	50
999.432	-658.59
999.594	715.59
999.757	2173.75
999.919	322.38
1000.081	-2942.08
1000.244	-341.16
1000.406	-54.44
1000.568	-160.94
1000.731	1790.78
1000.893	1776.44
1001.055	1631.04
1001.217	-740.51
1001.379	-3261.56
1001.542	-1764.5
1001.704	3289.89
1001.866	-994.46
1002.028	1274.69
1002.19	533.33
1002.352	-1291.41
1002.514	-2114.7
1002.676	5403.39
1002.838	1813.31
1003	-588.96
1003.162	-1805.46
1003.324	2290.48
1003.486	1205.06
1003.648	-1344.66
1003.809	-812.19
1003.971	1065.8
1004.133	76.63
1004.295	-31.91
1004.457	-292.01
1004.618	881.48
1004.78	332.62
1004.942	3613.47
1005.104	281.43
1005.265	-1502.36
1005.427	1045.32
1005.589	-789.66
1005.75	590.67
1005.912	2028.34
1006.073	2169.65
1006.235	318.29
1006.396	-160.94
1006.558	-99.5
1006.72	-97.45
1006.881	568.14
1007.042	-1703.06
1007.204	-2346.12
1007.365	-1506.45
1007.527	1217.35
1007.688	3001.13
1007.849	230.23
1008.011	66.39
1008.172	580.43
1008.333	947.01
1008.495	-171.18
1008.656	-3183.74
1008.817	1190.72
1008.978	2515.76
1009.139	-595.11
1009.301	783.18
1009.462	-3841.14
1009.623	1219.39
1009.784	-1430.68
1009.945	363.34
1010.106	1071.94
1010.267	312.14
1010.428	-1481.88
1010.589	-3335.29
1010.75	205.65
1010.911	-1711.25
1011.072	-3372.15
1011.233	971.59
1011.394	-343.21
1011.555	52.05
1011.716	758.6
1011.877	-1741.97
1012.037	463.69
1012.198	-1879.18
1012.359	596.81
1012.52	-1623.19
1012.68	-261.29
1012.841	246.61
1013.002	461.65
1013.163	-990.36
1013.323	402.26
1013.484	-3032.19
1013.644	-1543.32
1013.805	748.36
1013.966	-455.84
1014.126	2802.47
1014.287	-691.36
1014.447	-205.99
1014.608	1450.82
1014.768	-1848.46
1014.929	1295.17
1015.089	-1651.86
1015.249	430.93
1015.41	179.03
1015.57	1196.87
1015.731	-3515.51
1015.891	-687.26
1016.051	873.29
1016.211	-427.17
1016.372	1520.45
1016.532	-806.05
1016.692	-273.57
1016.852	756.55
1017.013	-785.57
1017.173	-81.07
1017.333	-1352.85
1017.493	-722.08
1017.653	-1905.81
1017.813	-3060.86
1017.973	-277.67
1018.133	-1866.89
1018.293	-2722.95
1018.453	-208.04
1018.613	-3314.81
1018.773	2229.04
1018.933	-199.85
1019.093	1114.95
1019.253	-89.26
1019.413	1291.07
1019.573	-3355.77
1019.733	-224.42
1019.892	1979.19
1020.052	-568.48
1020.212	459.6
1020.372	375.63
1020.531	1610.56
1020.691	-66.73
1020.851	-380.07
1021.01	279.38
1021.17	353.1
1021.33	-261.29
1021.489	-2425.99
1021.649	9.05
1021.808	58.2
1021.968	418.64
1022.127	-4191.34
1022.287	1917.75
1022.446	-758.94
1022.606	867.14
1022.765	-1834.13
1022.925	2687.79
1023.084	815.94
1023.244	1862.46
1023.403	-453.8
1023.562	-1029.27
1023.722	-570.53
1023.881	-644.26
1024.04	-128.17
1024.199	633.68
1024.359	107.35
1024.518	-3019.9
1024.677	-877.73
1024.836	-847.01
1024.995	1039.17
1025.154	-1008.8
1025.313	-85.16
1025.473	-1598.61
1025.632	-1920.14
1025.791	965.45
1025.95	-1694.86
1026.109	-785.57
1026.268	230.23
1026.427	1401.66
1026.586	1872.7
1026.744	334.67
1026.903	6019.83
1027.062	-54.44
1027.221	1153.86
1027.38	533.33
1027.539	1213.25
1027.698	4799.24
1027.856	-1537.17
1028.015	850.76
1028.174	359.25
1028.333	516.94
1028.491	4088.6
1028.65	1798.97
1028.808	3732.25
1028.967	865.1
1029.126	815.94
1029.284	-2718.85
1029.443	443.21
1029.601	-793.76
1029.76	-2206.86
1029.918	-1623.19
1030.077	815.94
1030.235	2151.22
1030.394	-894.11
1030.552	1307.46
1030.711	2908.97
1030.869	-597.15
1031.027	-740.51
1031.186	-3802.22
1031.344	-1692.82
1031.502	-224.42
1031.661	1471.29
1031.819	2251.57
1031.977	1246.02
1032.135	-1885.33
1032.293	-967.84
1032.452	-1993.87
1032.61	3685.15
1032.768	-2094.22
1032.926	158.55
1033.084	3158.82
1033.242	-1037.47
1033.4	-1703.06
1033.558	922.44
1033.716	-60.59
1033.874	-1154.2
1034.032	-140.46
1034.19	-113.83
1034.348	2536.24
1034.506	-3019.9
1034.664	654.16
1034.822	-2552.96
1034.979	2458.42
1035.137	928.58
1035.295	-210.09
